  -5.0762835e-03  -2.1137952e-02  -4.3918183e-02  -7.0319901e-02  -9.3593114e-02  -1.2671161e-01  -1.5094204e-01  -1.4577508e-01  -1.4706134e-01  -1.6330077e-01  -1.5348346e-01  -1.3775216e-01  -1.4866322e-01  -1.4678723e-01  -1.2335459e-01  -1.2377009e-01  -1.3086901e-01  -1.1513208e-01  -1.1371497e-01  -1.3069469e-01  -1.2353175e-01  -1.1336641e-01  -1.3000932e-01  -1.2840661e-01  -1.0958544e-01  -1.2227068e-01  -1.3234107e-01  -1.0847223e-01  -1.0234716e-01  -1.1026734e-01  -7.5807137e-02  -3.6413774e-02  -2.3147306e-02   1.1040578e-02   5.3166920e-02   5.7442278e-02   5.8479630e-02   7.8535384e-02   7.6040393e-02   5.6415908e-02   4.8479132e-02   3.4106626e-02   2.7248572e-03  -1.2652874e-02  -1.2554096e-02  -3.4563849e-02  -6.2656538e-02  -7.4248578e-02  -1.0694168e-01  -1.5197387e-01  -1.5600942e-01  -1.5246273e-01  -1.7197616e-01  -1.6661703e-01  -1.4342432e-01  -1.4945902e-01  -1.5304799e-01  -1.4424915e-01  -1.6725602e-01  -1.8948996e-01  -1.3116932e-01   2.6910488e-02   3.3437478e-01   8.5267662e-01   1.4378635e+00   1.8420594e+00   1.9348854e+00   1.6974975e+00   1.1358501e+00   4.1193338e-01  -1.9369393e-01  -5.6529483e-01  -7.4832386e-01  -7.5736560e-01  -6.3686623e-01  -5.0388218e-01  -3.7357570e-01  -2.2701993e-01  -1.2199942e-01  -6.5387270e-02  -9.8539472e-03   2.2245037e-02   1.6094561e-02   2.6164064e-02   5.0078649e-02   4.3378768e-02   4.2837988e-02   6.8907401e-02   7.0534498e-02   5.5403757e-02   6.5661399e-02   7.4071427e-02   6.0073802e-02   6.4950508e-02   8.8809266e-02   9.5246256e-02   1.0457947e-01   1.3529597e-01   1.5573925e-01   1.6729437e-01   2.0285871e-01   2.4426977e-01   2.7475962e-01   3.2670519e-01   3.9664705e-01   4.4319939e-01   4.9124054e-01   5.6091002e-01   6.0369828e-01   6.2439755e-01   6.6404818e-01   6.8750390e-01   6.7335496e-01   6.6833390e-01   6.6889785e-01   6.3167379e-01   5.8327726e-01   5.4663510e-01   4.8114322e-01   3.9621951e-01   3.3904289e-01   2.7951710e-01   2.0341179e-01   1.5808756e-01   1.2330512e-01   6.6119485e-02   2.7042725e-02   1.5591165e-02  -1.0664181e-02  -3.8425590e-02  -3.5207616e-02  -3.6786931e-02  -6.2228591e-02  -6.3611288e-02  -4.1231447e-02  -4.3181859e-02  -3.7869641e-02  -1.9354848e-03   9.4905789e-03   3.1659006e-03   2.2748927e-02   3.1327415e-02   1.4643184e-02   2.2331280e-02   3.9977437e-02   3.2980134e-02   3.6712853e-02   5.9408305e-02   5.8942661e-02   4.9295472e-02   6.3524556e-02   6.8267893e-02   5.0884792e-02   5.5692332e-02   6.9021976e-02   4.5932174e-02   2.6987759e-02   3.6209391e-02   1.9674045e-02  -1.2796376e-02  -1.0241207e-02  -1.2842478e-02  -4.5994322e-02  -5.5881106e-02  -5.2450596e-02  -7.5300563e-02  -8.6516849e-02  -6.9732285e-02  -7.2803682e-02  -8.5720096e-02  -6.9461015e-02  -6.0766571e-02  -7.6912917e-02  -7.2047876e-02  -5.8817154e-02  -7.5770033e-02  -8.6350744e-02  -7.4216276e-02  -8.1666114e-02  -9.6993636e-02  -8.4033376e-02  -7.5022796e-02  -9.0435724e-02  -8.7444134e-02  -6.8043130e-02  -7.1895053e-02  -6.7074099e-02  -2.9825714e-02  -5.5015156e-03   9.2537596e-03   4.5856558e-02   6.8647523e-02   5.8249103e-02   6.2783382e-02   7.4365009e-02   4.8987981e-02   2.1260878e-02   2.4107113e-02   9.4061799e-03  -2.0671629e-02  -1.4187766e-02  -1.7369856e-02  -5.9181758e-02  -8.1042057e-02  -9.8804534e-02  -1.4949166e-01  -1.6975433e-01  -1.5608169e-01  -1.7170363e-01  -1.8375026e-01  -1.6119000e-01  -1.5893273e-01  -1.8137731e-01  -1.8998990e-01  -2.0137410e-01  -2.2087638e-01  -1.7245677e-01   1.8884890e-02   3.6952973e-01   8.8452638e-01   1.4622602e+00   1.8622725e+00   1.9091691e+00   1.6249978e+00   1.0542042e+00   3.3422773e-01  -2.5762342e-01  -5.9482580e-01  -7.4754288e-01  -7.4499024e-01  -6.1212256e-01  -4.6126101e-01  -3.3703774e-01  -2.0955540e-01  -1.0605472e-01  -6.2932679e-02  -3.7725437e-02  -2.8172511e-03   6.9140427e-03   7.1267889e-03   3.1728619e-02   3.9925554e-02   2.4020312e-02   3.3319893e-02   4.9145138e-02   3.8036297e-02   4.2583620e-02   7.1207156e-02   7.3061455e-02   7.2421480e-02   1.0797435e-01   1.2909014e-01   1.2688284e-01   1.5781525e-01   1.9841623e-01   2.1038484e-01   2.4560236e-01   3.0986319e-01   3.4444650e-01   3.7598169e-01   4.3915959e-01   4.8758203e-01   5.2079329e-01   5.8409019e-01   6.4465029e-01   6.6730094e-01   6.9227584e-01   7.2276093e-01   7.1752099e-01   6.9817042e-01   6.9638287e-01   6.6925432e-01   6.0949698e-01   5.6099537e-01   5.0623464e-01   4.2438988e-01   3.5881686e-01   3.1046022e-01   2.4330439e-01   1.8425335e-01   1.5561933e-01   1.1873209e-01   7.4998851e-02   6.0068000e-02   4.7233821e-02   1.1514779e-02  -5.7086176e-03   2.4989322e-03  -8.6137812e-03  -1.7639258e-02   4.8214518e-03   1.0744192e-02  -7.0938651e-03   7.2508469e-03   2.9332442e-02   2.2417373e-02   3.4578722e-02   6.8198620e-02   6.9992046e-02   6.4736101e-02   8.3959160e-02   8.5801798e-02   6.4638981e-02   6.5186798e-02   7.1820504e-02   5.1593138e-02   4.1322906e-02   5.1509837e-02   4.0187286e-02   2.4593864e-02   3.6406251e-02   3.6169109e-02   1.8431448e-02   2.3795845e-02   2.7987435e-02   8.0952284e-03   6.3000442e-03   2.2886950e-02   1.2801474e-02  -2.1250562e-03   7.4459434e-03   1.4434652e-03  -2.4208016e-02  -2.2573104e-02  -1.6020788e-02  -3.8124659e-02  -4.4322295e-02  -2.9083677e-02  -3.9148635e-02  -5.1688820e-02  -3.9731865e-02  -4.4515550e-02  -6.3993741e-02  -5.4217157e-02  -4.1546654e-02  -5.1186698e-02  -4.4983721e-02  -2.8541675e-02  -4.4037784e-02  -5.9786640e-02  -4.6033364e-02  -4.8331821e-02  -6.6582492e-02  -5.0801431e-02  -3.2312712e-02  -4.4167959e-02  -2.8730330e-02   1.1751342e-02   2.1996812e-02   3.8359236e-02   8.2492260e-02   9.3842867e-02   8.4204848e-02   1.0135226e-01   1.0931592e-01   8.7119319e-02   7.8162684e-02   8.3785822e-02   6.4737151e-02   4.0735103e-02   4.4433689e-02   3.1178141e-02  -1.4085994e-02  -3.3402195e-02  -4.9297283e-02  -9.8468127e-02  -1.1589541e-01  -1.0157108e-01  -1.2115578e-01  -1.3553918e-01  -1.1790890e-01  -1.2519516e-01  -1.4887921e-01  -1.5027352e-01  -1.6101272e-01  -1.8270921e-01  -1.3522621e-01   3.8142213e-02   3.5601185e-01   8.5401962e-01   1.4370927e+00   1.8625143e+00   1.9576914e+00   1.7209687e+00   1.1818163e+00   4.6750143e-01  -1.4937421e-01  -5.2698697e-01  -7.1158183e-01  -7.3517988e-01  -6.2452455e-01  -4.8108915e-01  -3.4914414e-01  -2.1443354e-01  -1.0932510e-01  -5.9335246e-02  -2.9599667e-02  -3.8573493e-03  -5.4808774e-03  -9.1128944e-03   1.3198681e-02   1.9752554e-02   5.2102136e-03   1.4680437e-02   2.7915625e-02   1.6922104e-02   2.1171840e-02   4.6980310e-02   5.2603891e-02   5.9121472e-02   9.1552406e-02   1.0289580e-01   9.8674447e-02   1.2740923e-01   1.5665693e-01   1.6310123e-01   1.9497710e-01   2.4829811e-01   2.7757801e-01   3.1303667e-01   3.8340406e-01   4.4209347e-01   4.8369488e-01   5.4969604e-01   6.0853746e-01   6.2660846e-01   6.5281982e-01   6.8431017e-01   6.7368225e-01   6.5543808e-01   6.5397247e-01   6.2096326e-01   5.6087452e-01   5.1496983e-01   4.6121006e-01   3.8043434e-01   3.1488267e-01   2.6967544e-01   2.0491591e-01   1.4288109e-01   1.1209812e-01   7.2922498e-02   2.3164536e-02   7.5316773e-03  -3.6519521e-03  -4.0732388e-02  -5.6176385e-02  -4.8593139e-02  -6.0727286e-02  -6.8271716e-02  -4.8921501e-02  -5.1621977e-02  -7.1613914e-02  -6.5421316e-02  -6.2432981e-02  -8.2005152e-02  -7.4908121e-02  -5.1995069e-02  -5.8134140e-02  -5.7710507e-02  -3.1149017e-02  -2.9258197e-02  -4.6977361e-02  -3.8695266e-02  -3.0393373e-02  -4.8910097e-02  -5.5300094e-02  -4.8148087e-02  -6.6414986e-02  -8.9015670e-02  -8.7205331e-02  -9.5847804e-02  -1.1619558e-01  -1.1048373e-01  -1.0797319e-01  -1.2075889e-01  -5.0762835e-03  -2.1137952e-02  -4.3918183e-02  -7.0319901e-02  -9.3593114e-02  -1.2671161e-01  -1.5094204e-01  -1.4577508e-01  -1.4706134e-01  -1.6330077e-01  -1.5348346e-01  -1.3775216e-01  -1.4866322e-01  -1.4678723e-01  -1.2335459e-01  -1.2377009e-01  -1.3086901e-01  -1.1513208e-01  -1.1371497e-01  -1.3069469e-01  -1.2353175e-01  -1.1336641e-01  -1.3000932e-01  -1.2840661e-01  -1.0958544e-01  -1.2227068e-01  -1.3234107e-01  -1.0847223e-01  -1.0234716e-01  -1.1026734e-01  -7.5807137e-02  -3.6413774e-02  -2.3147306e-02   1.1040578e-02   5.3166920e-02   5.7442278e-02   5.8479630e-02   7.8535384e-02   7.6040393e-02   5.6415908e-02   4.8479132e-02   3.4106626e-02   2.7248572e-03  -1.2652874e-02  -1.2554096e-02  -3.4563849e-02  -6.2656538e-02  -7.4248578e-02  -1.0694168e-01  -1.5197387e-01  -1.5600942e-01  -1.5246273e-01  -1.7197616e-01  -1.6661703e-01  -1.4342432e-01  -1.4945902e-01  -1.5304799e-01  -1.4424915e-01  -1.6725602e-01  -1.8948996e-01  -1.3116932e-01   2.6910488e-02   3.3437478e-01   8.5267662e-01   1.4378635e+00   1.8420594e+00   1.9348854e+00   1.6974975e+00   1.1358501e+00   4.1193338e-01  -1.9369393e-01  -5.6529483e-01  -7.4832386e-01  -7.5736560e-01  -6.3686623e-01  -5.0388218e-01  -3.7357570e-01  -2.2701993e-01  -1.2199942e-01  -6.5387270e-02  -9.8539472e-03   2.2245037e-02   1.6094561e-02   2.6164064e-02   5.0078649e-02   4.3378768e-02   4.2837988e-02   6.8907401e-02   7.0534498e-02   5.5403757e-02   6.5661399e-02   7.4071427e-02   6.0073802e-02   6.4950508e-02   8.8809266e-02   9.5246256e-02   1.0457947e-01   1.3529597e-01   1.5573925e-01   1.6729437e-01   2.0285871e-01   2.4426977e-01   2.7475962e-01   3.2670519e-01   3.9664705e-01   4.4319939e-01   4.9124054e-01   5.6091002e-01   6.0369828e-01   6.2439755e-01   6.6404818e-01   6.8750390e-01   6.7335496e-01   6.6833390e-01   6.6889785e-01   6.3167379e-01   5.8327726e-01   5.4663510e-01   4.8114322e-01   3.9621951e-01   3.3904289e-01   2.7951710e-01   2.0341179e-01   1.5808756e-01   1.2330512e-01   6.6119485e-02   2.7042725e-02   1.5591165e-02  -1.0664181e-02  -3.8425590e-02  -3.5207616e-02  -3.6786931e-02  -6.2228591e-02  -6.3611288e-02  -4.1231447e-02  -4.3181859e-02  -3.7869641e-02  -1.9354848e-03   9.4905789e-03   3.1659006e-03   2.2748927e-02   3.1327415e-02   1.4643184e-02   2.2331280e-02   3.9977437e-02   3.2980134e-02   3.6712853e-02   5.9408305e-02   5.8942661e-02   4.9295472e-02   6.3524556e-02   6.8267893e-02   5.0884792e-02   5.5692332e-02   6.9021976e-02   4.5932174e-02   2.6987759e-02   3.6209391e-02   1.9674045e-02  -1.2796376e-02  -1.0241207e-02  -1.2842478e-02  -4.5994322e-02  -5.5881106e-02  -5.2450596e-02  -7.5300563e-02  -8.6516849e-02  -6.9732285e-02  -7.2803682e-02  -8.5720096e-02  -6.9461015e-02  -6.0766571e-02  -7.6912917e-02  -7.2047876e-02  -5.8817154e-02  -7.5770033e-02  -8.6350744e-02  -7.4216276e-02  -8.1666114e-02  -9.6993636e-02  -8.4033376e-02  -7.5022796e-02  -9.0435724e-02  -8.7444134e-02  -6.8043130e-02  -7.1895053e-02  -6.7074099e-02  -2.9825714e-02  -5.5015156e-03   9.2537596e-03   4.5856558e-02   6.8647523e-02   5.8249103e-02   6.2783382e-02   7.4365009e-02   4.8987981e-02   2.1260878e-02   2.4107113e-02   9.4061799e-03  -2.0671629e-02  -1.4187766e-02  -1.7369856e-02  -5.9181758e-02  -8.1042057e-02  -9.8804534e-02  -1.4949166e-01  -1.6975433e-01  -1.5608169e-01  -1.7170363e-01  -1.8375026e-01  -1.6119000e-01  -1.5893273e-01  -1.8137731e-01  -1.8998990e-01  -2.0137410e-01  -2.2087638e-01  -1.7245677e-01   1.8884890e-02   3.6952973e-01   8.8452638e-01   1.4622602e+00   1.8622725e+00   1.9091691e+00   1.6249978e+00   1.0542042e+00   3.3422773e-01  -2.5762342e-01  -5.9482580e-01  -7.4754288e-01  -7.4499024e-01  -6.1212256e-01  -4.6126101e-01  -3.3703774e-01  -2.0955540e-01  -1.0605472e-01  -6.2932679e-02  -3.7725437e-02  -2.8172511e-03   6.9140427e-03   7.1267889e-03   3.1728619e-02   3.9925554e-02   2.4020312e-02   3.3319893e-02   4.9145138e-02   3.8036297e-02   4.2583620e-02   7.1207156e-02   7.3061455e-02   7.2421480e-02   1.0797435e-01   1.2909014e-01   1.2688284e-01   1.5781525e-01   1.9841623e-01   2.1038484e-01   2.4560236e-01   3.0986319e-01   3.4444650e-01   3.7598169e-01   4.3915959e-01   4.8758203e-01   5.2079329e-01   5.8409019e-01   6.4465029e-01   6.6730094e-01   6.9227584e-01   7.2276093e-01   7.1752099e-01   6.9817042e-01   6.9638287e-01   6.6925432e-01   6.0949698e-01   5.6099537e-01   5.0623464e-01   4.2438988e-01   3.5881686e-01   3.1046022e-01   2.4330439e-01   1.8425335e-01   1.5561933e-01   1.1873209e-01   7.4998851e-02   6.0068000e-02   4.7233821e-02   1.1514779e-02  -5.7086176e-03   2.4989322e-03  -8.6137812e-03  -1.7639258e-02   4.8214518e-03   1.0744192e-02  -7.0938651e-03   7.2508469e-03   2.9332442e-02   2.2417373e-02   3.4578722e-02   6.8198620e-02   6.9992046e-02   6.4736101e-02   8.3959160e-02   8.5801798e-02   6.4638981e-02   6.5186798e-02   7.1820504e-02   5.1593138e-02   4.1322906e-02   5.1509837e-02   4.0187286e-02   2.4593864e-02   3.6406251e-02   3.6169109e-02   1.8431448e-02   2.3795845e-02   2.7987435e-02   8.0952284e-03   6.3000442e-03   2.2886950e-02   1.2801474e-02  -2.1250562e-03   7.4459434e-03   1.4434652e-03  -2.4208016e-02  -2.2573104e-02  -1.6020788e-02  -3.8124659e-02  -4.4322295e-02  -2.9083677e-02  -3.9148635e-02  -5.1688820e-02  -3.9731865e-02  -4.4515550e-02  -6.3993741e-02  -5.4217157e-02  -4.1546654e-02  -5.1186698e-02  -4.4983721e-02  -2.8541675e-02  -4.4037784e-02  -5.9786640e-02  -4.6033364e-02  -4.8331821e-02  -6.6582492e-02  -5.0801431e-02  -3.2312712e-02  -4.4167959e-02  -2.8730330e-02   1.1751342e-02   2.1996812e-02   3.8359236e-02   8.2492260e-02   9.3842867e-02   8.4204848e-02   1.0135226e-01   1.0931592e-01   8.7119319e-02   7.8162684e-02   8.3785822e-02   6.4737151e-02   4.0735103e-02   4.4433689e-02   3.1178141e-02  -1.4085994e-02  -3.3402195e-02  -4.9297283e-02  -9.8468127e-02  -1.1589541e-01  -1.0157108e-01  -1.2115578e-01  -1.3553918e-01  -1.1790890e-01  -1.2519516e-01  -1.4887921e-01  -1.5027352e-01  -1.6101272e-01  -1.8270921e-01  -1.3522621e-01   3.8142213e-02   3.5601185e-01   8.5401962e-01   1.4370927e+00   1.8625143e+00   1.9576914e+00   1.7209687e+00   1.1818163e+00   4.6750143e-01  -1.4937421e-01  -5.2698697e-01  -7.1158183e-01  -7.3517988e-01  -6.2452455e-01  -4.8108915e-01  -3.4914414e-01  -2.1443354e-01  -1.0932510e-01  -5.9335246e-02  -2.9599667e-02  -3.8573493e-03  -5.4808774e-03  -9.1128944e-03   1.3198681e-02   1.9752554e-02   5.2102136e-03   1.4680437e-02   2.7915625e-02   1.6922104e-02   2.1171840e-02   4.6980310e-02   5.2603891e-02   5.9121472e-02   9.1552406e-02   1.0289580e-01   9.8674447e-02   1.2740923e-01   1.5665693e-01   1.6310123e-01   1.9497710e-01   2.4829811e-01   2.7757801e-01   3.1303667e-01   3.8340406e-01   4.4209347e-01   4.8369488e-01   5.4969604e-01   6.0853746e-01   6.2660846e-01   6.5281982e-01   6.8431017e-01   6.7368225e-01   6.5543808e-01   6.5397247e-01   6.2096326e-01   5.6087452e-01   5.1496983e-01   4.6121006e-01   3.8043434e-01   3.1488267e-01   2.6967544e-01   2.0491591e-01   1.4288109e-01   1.1209812e-01   7.2922498e-02   2.3164536e-02   7.5316773e-03  -3.6519521e-03  -4.0732388e-02  -5.6176385e-02  -4.8593139e-02  -6.0727286e-02  -6.8271716e-02  -4.8921501e-02  -5.1621977e-02  -7.1613914e-02  -6.5421316e-02  -6.2432981e-02  -8.2005152e-02  -7.4908121e-02  -5.1995069e-02  -5.8134140e-02  -5.7710507e-02  -3.1149017e-02  -2.9258197e-02  -4.6977361e-02  -3.8695266e-02  -3.0393373e-02  -4.8910097e-02  -5.5300094e-02  -4.8148087e-02  -6.6414986e-02  -8.9015670e-02  -8.7205331e-02  -9.5847804e-02  -1.1619558e-01  -1.1048373e-01  -1.0797319e-01  -1.2075889e-01
