time	V(n010)
0.000000000000000e+00	-1.614409e-14
1.999999943436137e-09	1.668678e-09
1.999999943436138e-08	2.337738e-08
3.799999892528662e-08	3.838511e-08
5.599999841621186e-08	4.669187e-08
7.399999790713710e-08	4.829766e-08
9.199999739806233e-08	4.320248e-08
1.099999968889876e-07	3.140634e-08
1.279999963799128e-07	1.290922e-08
1.837432299242117e-07	-1.050767e-07
2.306904608235521e-07	-2.698824e-07
2.764048966165713e-07	-4.368541e-07
3.289401771279289e-07	-5.394616e-07
3.774494624936665e-07	-4.153083e-07
4.459766891483710e-07	2.964890e-07
5.375302423442294e-07	2.019446e-06
6.854536871271123e-07	3.029340e-06
9.419454873930692e-07	-1.126076e-05
1.232118857629667e-06	-6.084571e-05
1.585998682853616e-06	-1.527962e-04
2.064787736715409e-06	-2.618659e-04
2.751844654002962e-06	-3.380736e-04
3.904827802076372e-06	-3.564738e-04
5.958952939422074e-06	-2.966129e-04
8.907113177006166e-06	-1.293147e-04
1.222452916414903e-05	1.528586e-04
1.546134554849831e-05	5.281208e-04
1.856077784275521e-05	9.913107e-04
2.262878804422147e-05	1.754866e-03
2.794118947271479e-05	3.012442e-03
3.567455287249306e-05	5.351563e-03
4.581302858963159e-05	9.319702e-03
5.973207479232505e-05	1.642008e-02
7.792682234423071e-05	2.855289e-02
1.024611614545468e-04	4.995248e-02
1.347654637064245e-04	8.678558e-02
1.781528689818866e-04	1.513226e-01
2.357674917509884e-04	2.627395e-01
3.135913787370677e-04	4.575862e-01
4.185822305044834e-04	7.770293e-01
4.870801543570318e-04	9.940872e-01
5.279989047356961e-04	1.069195e+00
5.534613863708843e-04	1.031845e+00
5.779287305792984e-04	9.360854e-01
6.057647114177493e-04	8.191898e-01
6.313256327814892e-04	7.132654e-01
6.677904396058405e-04	5.642356e-01
7.147720459894426e-04	3.831168e-01
7.979839242985736e-04	7.971301e-02
9.346939872363011e-04	-4.076790e-01
1.000000000000000e-03	-6.408305e-01
1.000710460698701e-03	-6.423135e-01
1.002131382096104e-03	-6.433645e-01
1.003629696060259e-03	-6.398837e-01
1.005597922021744e-03	-6.282391e-01
1.007384511423272e-03	-6.133331e-01
1.010081513589311e-03	-5.877347e-01
1.012772951280023e-03	-5.611186e-01
1.018155826661449e-03	-5.071189e-01
1.024928136633215e-03	-4.392751e-01
1.038472756576749e-03	-3.045668e-01
1.065561996463816e-03	-3.901936e-02
1.119740476237951e-03	4.776271e-01
1.228097435786219e-03	1.475846e+00
1.302355520510220e-03	2.122157e+00
1.349633606333029e-03	2.458613e+00
1.377362161799216e-03	2.547945e+00
1.404400973806768e-03	2.526264e+00
1.430120989337992e-03	2.469367e+00
1.458452972713899e-03	2.406978e+00
1.459799138238550e-03	2.403672e+00
1.462491469287852e-03	2.397688e+00
1.466787804871091e-03	2.390006e+00
1.471496686822682e-03	2.384333e+00
1.474586705698415e-03	2.382391e+00
1.478540659265762e-03	2.381303e+00
1.482726039457321e-03	2.380753e+00
1.490135850287463e-03	2.380548e+00
1.497822826557437e-03	2.381019e+00
1.509673408197468e-03	2.382668e+00
1.521046047318428e-03	2.385165e+00
1.543177939944793e-03	2.392202e+00
1.573448511023185e-03	2.404606e+00
1.594290357981629e-03	2.414699e+00
1.614021598280731e-03	2.425631e+00
1.653484078878935e-03	2.451267e+00
1.732409040075343e-03	2.515946e+00
1.890258962468159e-03	2.634511e+00
1.967486282545488e-03	2.602562e+00
2.000000000000000e-03	2.516190e+00
2.000765618534794e-03	2.511732e+00
2.002296855604383e-03	2.503208e+00
2.003517320310470e-03	2.496979e+00
2.005268933044760e-03	2.488659e+00
2.007168110096247e-03	2.479673e+00
2.009516775182546e-03	2.468415e+00
2.012722356506431e-03	2.452934e+00
2.016900531605026e-03	2.432514e+00
2.023154098312720e-03	2.401412e+00
2.032273082159915e-03	2.354849e+00
2.046803406986875e-03	2.278921e+00
2.061203618896499e-03	2.203630e+00
2.075402450806437e-03	2.131111e+00
2.103800114626314e-03	1.992300e+00
2.157608463371727e-03	1.750000e+00
2.265225160862552e-03	1.341710e+00
2.480458555844204e-03	7.435512e-01
2.744180456326902e-03	2.992095e-01
2.927075820162935e-03	1.627282e-01
3.000000000000000e-03	1.519377e-01
3.003734242188358e-03	1.528359e-01
3.011202726565073e-03	1.543191e-01
3.021316107008583e-03	1.558678e-01
3.030502094219363e-03	1.569021e-01
3.048874068640923e-03	1.578482e-01
3.085618017484042e-03	1.555928e-01
3.159105915170281e-03	1.354267e-01
3.306081710542759e-03	4.399480e-02
3.537684815465454e-03	-2.094322e-01
3.833636544579906e-03	-6.732762e-01
4.000000000000000e-03	-9.924454e-01
4.030846443882257e-03	-1.053484e+00
4.092539331646769e-03	-1.159651e+00
4.215925107175794e-03	-1.300394e+00
4.462696658233845e-03	-1.385296e+00
4.716170815546024e-03	-1.250011e+00
4.953784978445603e-03	-9.526671e-01
5.000000000000000e-03	-8.747067e-01
5.007237834798724e-03	-8.607190e-01
5.021713504396173e-03	-8.333831e-01
5.049742677232545e-03	-7.822400e-01
5.078604605996446e-03	-7.323282e-01
5.136328463524248e-03	-6.418575e-01
5.251776178579854e-03	-4.932593e-01
5.482671608691064e-03	-2.853114e-01
5.737628276962278e-03	-1.655639e-01
5.969083116052426e-03	-1.378495e-01
6.000000000000000e-03	-1.408082e-01
6.003568149117317e-03	-1.416219e-01
6.010704447351948e-03	-1.430712e-01
6.023433062947727e-03	-1.452603e-01
6.035778290919594e-03	-1.469388e-01
6.060468746863329e-03	-1.488256e-01
6.109849658750799e-03	-1.472665e-01
6.208611482525739e-03	-1.242956e-01
6.406135130075619e-03	-2.111211e-02
6.644940425596874e-03	1.924669e-01
6.975498943439037e-03	5.903040e-01
7.000000000000000e-03	6.248662e-01
7.009254911116238e-03	6.388146e-01
7.027764733348714e-03	6.656831e-01
7.063657169317281e-03	7.139688e-01
7.118170433065295e-03	7.770455e-01
7.227196960561325e-03	8.699679e-01
7.405175291618874e-03	9.488634e-01
7.617906447509257e-03	9.329686e-01
7.921603963075846e-03	7.738028e-01
8.000000000000000e-03	7.083974e-01
8.015176029438745e-03	6.926443e-01
8.045528088316238e-03	6.621271e-01
8.106232206071221e-03	6.054069e-01
8.227640441581186e-03	5.079135e-01
8.470456912601119e-03	3.613142e-01
8.831186343674049e-03	2.164943e-01
9.000000000000001e-03	1.752160e-01
9.024530094827787e-03	1.711824e-01
9.073590284483360e-03	1.603289e-01
9.171710663794505e-03	1.268713e-01
9.341925771323596e-03	3.470314e-02
9.650828503155559e-03	-2.122335e-01
1.000000000000000e-02	-5.640325e-01
1.003651161994541e-02	-6.041778e-01
1.010953485983622e-02	-6.735495e-01
1.025558133961786e-02	-7.696080e-01
1.047388145238673e-02	-8.272923e-01
1.072800768600262e-02	-7.849393e-01
1.097446529634886e-02	-6.619344e-01
1.100000000000000e-02	-6.438201e-01
1.100728328233144e-02	-6.378593e-01
1.102184984699431e-02	-6.262741e-01
1.105098297632006e-02	-6.042287e-01
1.109264663021983e-02	-5.754012e-01
1.117597393801935e-02	-5.273914e-01
1.134262855361841e-02	-4.647894e-01
1.167593778481652e-02	-4.249033e-01
1.200000000000000e-02	-4.542702e-01
1.204077755296306e-02	-4.633437e-01
1.212233265888919e-02	-4.732525e-01
1.228544287074145e-02	-4.584652e-01
1.258151324468595e-02	-3.404606e-01
1.300000000000000e-02	-6.684751e-02
1.302318071249364e-02	-4.613746e-02
1.306954213748092e-02	-7.644418e-03
1.316226498745548e-02	5.888130e-02
1.327120049361114e-02	1.172201e-01
1.348907150592246e-02	1.785943e-01
1.380251083342336e-02	1.866273e-01
1.400000000000000e-02	1.518351e-01
1.403007928984945e-02	1.425322e-01
1.409023786954835e-02	1.269446e-01
1.421055502894616e-02	1.075054e-01
1.438717729649644e-02	1.062957e-01
1.470609429097704e-02	1.623876e-01
1.500000000000000e-02	2.559209e-01
1.502967757196916e-02	2.679907e-01
1.508903271590748e-02	2.881388e-01
1.520774300378412e-02	3.105934e-01
1.544516357953741e-02	3.078399e-01
1.566609438652763e-02	2.563479e-01
1.588338076421700e-02	1.629618e-01
1.600000000000000e-02	9.857330e-02
1.602276607990909e-02	8.443788e-02
1.606829823972727e-02	5.748354e-02
1.615936255936362e-02	8.699526e-03
1.629368331157404e-02	-5.128065e-02
1.652074193086347e-02	-1.270601e-01
1.676976301393000e-02	-1.809005e-01
1.699487506803075e-02	-2.093212e-01
1.700000000000000e-02	-2.096902e-01
1.707174904756956e-02	-2.130425e-01
1.715374795907762e-02	-2.171339e-01
1.731774578209375e-02	-2.260019e-01
1.764574142812600e-02	-2.455442e-01
1.800000000000000e-02	-2.682616e-01
1.806559912920645e-02	-2.688992e-01
1.819679738761935e-02	-2.620153e-01
1.845919390444516e-02	-2.181447e-01
1.883578384555701e-02	-1.108329e-01
1.900000000000000e-02	-4.920496e-02
1.904671134216641e-02	-2.996435e-02
1.914013402649924e-02	5.754934e-03
1.926454934216960e-02	4.667770e-02
1.943657004218890e-02	8.922672e-02
1.978061144222749e-02	1.451858e-01
2.000000000000000e-02	1.665860e-01
2.004141000065531e-02	1.685789e-01
2.012423000196592e-02	1.737742e-01
2.028987000458716e-02	1.894416e-01
2.062115000982962e-02	2.352495e-01
2.100000000000000e-02	3.012792e-01
2.104552936293557e-02	3.081961e-01
2.113658808880670e-02	3.158403e-01
2.131870554054897e-02	3.059428e-01
2.162893830973284e-02	2.316602e-01
2.199075344814225e-02	8.987207e-02
2.200000000000000e-02	8.526020e-02
2.200578126723098e-02	8.204567e-02
2.201734380169293e-02	7.572296e-02
2.204046887061684e-02	6.346467e-02
2.208622211646261e-02	4.057977e-02
2.217772860815416e-02	-8.504919e-05
2.236074159153726e-02	-6.391073e-02
2.270345099012477e-02	-1.436278e-01
2.300000000000000e-02	-1.846508e-01
2.303846461187167e-02	-1.866507e-01
2.311539383561501e-02	-1.914101e-01
2.326925228310170e-02	-2.042232e-01
2.357696917807507e-02	-2.394899e-01
2.400000000000000e-02	-2.990143e-01
2.404743543677901e-02	-3.052094e-01
2.414230631033703e-02	-3.134330e-01
2.433204805745306e-02	-3.117938e-01
2.471153155168512e-02	-2.646542e-01
2.500000000000000e-02	-2.018883e-01
2.504620161229780e-02	-1.890418e-01
2.513860483689340e-02	-1.665047e-01
2.532341128608460e-02	-1.343732e-01
2.564682468653769e-02	-1.079258e-01
2.600000000000000e-02	-1.055208e-01
2.604144315486134e-02	-1.067079e-01
2.612432946458400e-02	-1.050834e-01
2.629010208402934e-02	-8.733229e-02
2.649829697896982e-02	-3.837730e-02
2.685823582350508e-02	9.057225e-02
2.700000000000000e-02	1.539432e-01
2.702483400826254e-02	1.658316e-01
2.707450202478763e-02	1.870754e-01
2.717383805783781e-02	2.181662e-01
2.737251012393817e-02	2.463720e-01
2.762205569468613e-02	2.329261e-01
2.784056969212332e-02	1.804350e-01
2.800000000000000e-02	1.218994e-01
2.800556909351658e-02	1.193076e-01
2.801670728054976e-02	1.142296e-01
2.803898365461609e-02	1.044437e-01
2.807949377260155e-02	8.781539e-02
2.816051400857245e-02	5.829260e-02
2.827656064689673e-02	2.290187e-02
2.839274811161452e-02	-4.536379e-03
2.851946155516507e-02	-2.566107e-02
2.864274623759063e-02	-3.842820e-02
2.875791895282838e-02	-4.379901e-02
2.886801160116762e-02	-4.319322e-02
2.900000000000000e-02	-3.767237e-02
2.901419844452154e-02	-3.662721e-02
2.904259533356462e-02	-3.477600e-02
2.909938911165078e-02	-3.209595e-02
2.921297666782310e-02	-3.051552e-02
2.944015178016775e-02	-3.730378e-02
2.965450985943473e-02	-5.506523e-02
2.995332483612101e-02	-9.304214e-02
3.000000000000000e-02	-1.002714e-01
3.002503852819728e-02	-1.041933e-01
3.007511558459185e-02	-1.109952e-01
3.017526969738098e-02	-1.199192e-01
3.037557792295925e-02	-1.221040e-01
3.071973415062602e-02	-9.433239e-02
3.100000000000000e-02	-5.111777e-02
3.103403106003695e-02	-4.362812e-02
3.110209318011084e-02	-2.906790e-02
3.123821742025863e-02	-1.774696e-03
3.151046590055420e-02	4.683849e-02
3.200000000000000e-02	1.251493e-01
3.205444969605912e-02	1.331923e-01
3.216334908817735e-02	1.505344e-01
3.238114787241381e-02	1.896920e-01
3.265273296004421e-02	2.456930e-01
3.300000000000000e-02	3.246367e-01
3.305431701752608e-02	3.348996e-01
3.316295105257824e-02	3.484401e-01
3.338021912268256e-02	3.473271e-01
3.375676651309691e-02	2.898270e-01
3.400000000000000e-02	2.242390e-01
3.404544819475255e-02	2.091230e-01
3.413634458425766e-02	1.832282e-01
3.431813736326786e-02	1.482560e-01
3.459443338196741e-02	1.306085e-01
3.497881901423244e-02	1.473693e-01
3.500000000000000e-02	1.498886e-01
3.501094650092122e-02	1.516120e-01
3.503283950276364e-02	1.547809e-01
3.507662550644848e-02	1.599287e-01
3.516419751381816e-02	1.657619e-01
3.533934152855753e-02	1.616146e-01
3.568962955803626e-02	1.141699e-01
3.600000000000000e-02	4.380986e-02
3.603929806619143e-02	3.244268e-02
3.611789419857428e-02	1.193886e-02
3.622828713301431e-02	-1.152999e-02
3.635220088769080e-02	-2.895209e-02
3.660002839704380e-02	-4.257322e-02
3.686997837063218e-02	-3.635868e-02
3.700000000000000e-02	-2.561319e-02
3.703059824530494e-02	-2.223487e-02
3.709179473591482e-02	-1.660133e-02
3.720321537008770e-02	-9.840494e-03
3.732235840904136e-02	-7.968367e-03
3.751939090373387e-02	-1.522538e-02
3.772158988400950e-02	-3.425362e-02
3.800000000000000e-02	-7.288177e-02
3.803320849296686e-02	-7.803600e-02
3.809962547890059e-02	-8.615568e-02
3.823245945076805e-02	-9.357841e-02
3.844436087669147e-02	-8.498699e-02
3.873941443010619e-02	-4.124837e-02
3.900000000000000e-02	1.887042e-02
3.902501193582702e-02	2.631724e-02
3.907503580748105e-02	4.053853e-02
3.917508355078911e-02	6.598924e-02
3.937517903740523e-02	1.062706e-01
3.977407443119526e-02	1.632478e-01
4.000000000000000e-02	1.849466e-01
4.026404151479551e-02	1.996645e-01
4.056580324599039e-02	2.175746e-01
4.100000000000000e-02	2.443221e-01
4.106035234623898e-02	2.449703e-01
4.118105703871693e-02	2.394187e-01
4.142246642367282e-02	2.027323e-01
4.177344106168102e-02	1.082869e-01
4.200000000000000e-02	2.662216e-02
4.204549759080512e-02	8.724753e-03
4.213649277241535e-02	-2.353221e-02
4.224960682080803e-02	-5.542148e-02
4.242282448793611e-02	-8.546185e-02
4.273245236750257e-02	-1.021724e-01
4.300000000000000e-02	-9.154164e-02
4.303303327558105e-02	-8.805658e-02
4.309909982674314e-02	-8.328387e-02
4.323123292906733e-02	-8.225323e-02
4.342471317453676e-02	-9.957632e-02
4.373916275506938e-02	-1.620818e-01
4.400000000000000e-02	-2.357270e-01
4.402808456549175e-02	-2.448905e-01
4.408425369647527e-02	-2.607391e-01
4.419659195844230e-02	-2.813283e-01
4.442126848237635e-02	-2.919872e-01
4.464768647796855e-02	-2.640446e-01
4.499442291203126e-02	-1.736688e-01
4.500000000000000e-02	-1.717255e-01
4.500433788580535e-02	-1.699757e-01
4.503036520063747e-02	-1.597976e-01
4.506363289586100e-02	-1.474147e-01
4.513016828630808e-02	-1.246029e-01
4.526323906720223e-02	-8.608510e-02
4.552938062899052e-02	-2.865802e-02
4.583754601004480e-02	1.516340e-02
4.600000000000000e-02	2.914623e-02
4.609362522392078e-02	3.352947e-02
4.621845885581517e-02	4.013501e-02
4.646812611960393e-02	5.561974e-02
4.696746064718145e-02	9.060458e-02
4.700000000000000e-02	9.308643e-02
4.703607535415989e-02	9.558762e-02
4.710822606247967e-02	9.966548e-02
4.725252747911923e-02	1.037203e-01
4.754113031239834e-02	1.003298e-01
4.787603075274940e-02	8.377849e-02
4.800000000000000e-02	7.414705e-02
4.803237373105401e-02	7.117864e-02
4.809712119316201e-02	6.567878e-02
4.822661611737802e-02	5.661549e-02
4.848560596581005e-02	4.458623e-02
4.889559248864491e-02	3.462838e-02
4.900000000000000e-02	3.386427e-02
4.902607560257841e-02	3.358596e-02
4.907822680773521e-02	3.203882e-02
4.918252921804881e-02	2.532711e-02
4.931109231319056e-02	9.845089e-03
4.956821850347407e-02	-3.959987e-02
4.986080852695548e-02	-1.153083e-01
5.000000000000000e-02	-1.583832e-01
5.001815174192828e-02	-1.646073e-01
5.004235406449931e-02	-1.725968e-01
5.009075870964139e-02	-1.876096e-01
5.018756799992553e-02	-2.140350e-01
5.038118658049381e-02	-2.551358e-01
5.070672732205243e-02	-3.004896e-01
5.100000000000000e-02	-3.240924e-01
5.104116212291485e-02	-3.254477e-01
5.112348636874453e-02	-3.291645e-01
5.128813486040390e-02	-3.409840e-01
5.161743184372264e-02	-3.767161e-01
5.200000000000000e-02	-4.298204e-01
5.206585939666375e-02	-4.376371e-01
5.219757818999125e-02	-4.459018e-01
5.246101577664623e-02	-4.318788e-01
5.297654500376990e-02	-3.508527e-01
5.300000000000000e-02	-3.452942e-01
5.301989809547943e-02	-3.397442e-01
5.305969428643828e-02	-3.292530e-01
5.313928666835600e-02	-3.109980e-01
5.329847143219143e-02	-2.844216e-01
5.361684095986229e-02	-2.584163e-01
5.400000000000000e-02	-2.541812e-01
5.406192408644021e-02	-2.566683e-01
5.418577225932062e-02	-2.580642e-01
5.443346860508145e-02	-2.458030e-01
5.492886129660311e-02	-1.929141e-01
5.500000000000000e-02	-1.821603e-01
5.505968943907084e-02	-1.725123e-01
5.517906831721250e-02	-1.559892e-01
5.541782607349584e-02	-1.343336e-01
5.586224390791841e-02	-1.154144e-01
5.600000000000000e-02	-1.147167e-01
5.604965267225892e-02	-1.152444e-01
5.614895801677676e-02	-1.147890e-01
5.634756870581244e-02	-1.073624e-01
5.674479008388381e-02	-7.736771e-02
5.700000000000000e-02	-5.029295e-02
5.705402783304354e-02	-4.415543e-02
5.716208349913061e-02	-3.434987e-02
5.737819483130475e-02	-2.277146e-02
5.758296993860697e-02	-2.170114e-02
5.789974838631663e-02	-3.367990e-02
5.800000000000000e-02	-4.029687e-02
5.803052836659445e-02	-4.262381e-02
5.809158509978336e-02	-4.644431e-02
5.821369856616115e-02	-5.042868e-02
5.844957436855315e-02	-4.738006e-02
5.878641055607111e-02	-2.672310e-02
5.900000000000000e-02	-5.594574e-03
5.903704947898610e-02	-1.250030e-03
5.911114843695831e-02	6.553554e-03
5.919944193863744e-02	1.402272e-02
5.930954080780560e-02	1.988840e-02
5.952973854614193e-02	2.318619e-02
5.978544846988586e-02	1.678670e-02
6.000000000000000e-02	4.663050e-03
6.000953522250094e-02	3.891916e-03
6.002860566750282e-02	2.490041e-03
6.006674655750659e-02	1.997626e-04
6.012095424870761e-02	-1.790518e-03
6.022936963110966e-02	-1.709142e-03
6.040593300214416e-02	6.928184e-03
6.059428863632985e-02	2.745892e-02
6.086809469705396e-02	7.251080e-02
6.100000000000000e-02	9.928542e-02
6.103710917441639e-02	1.072389e-01
6.111132752324917e-02	1.213964e-01
6.125976422091475e-02	1.419780e-01
6.155663761624589e-02	1.623579e-01
6.185897025694289e-02	1.628373e-01
6.200000000000000e-02	1.559925e-01
6.203049097333616e-02	1.539571e-01
6.209147292000847e-02	1.511054e-01
6.221343681335308e-02	1.508375e-01
6.245736460004232e-02	1.668407e-01
6.280074111487917e-02	2.136934e-01
6.300000000000000e-02	2.518447e-01
6.312793710103033e-02	2.849360e-01
6.329851990240411e-02	3.348936e-01
6.363968550515166e-02	4.483816e-01
6.400000000000000e-02	5.800042e-01
6.406823312054952e-02	6.107053e-01
6.420469936164853e-02	6.791946e-01
6.447763184384657e-02	8.451814e-01
6.500000000000000e-02	1.211396e+00
6.505458649643961e-02	1.249871e+00
6.516375948931882e-02	1.313678e+00
6.538210547507725e-02	1.385000e+00
6.581879744659411e-02	1.407858e+00
6.600000000000000e-02	1.378050e+00
6.606780400789705e-02	1.359975e+00
6.620341202369116e-02	1.335500e+00
6.647462805527939e-02	1.334549e+00
6.700000000000000e-02	1.414026e+00
6.705424320631764e-02	1.429070e+00
6.716272961895293e-02	1.451214e+00
6.737970244422352e-02	1.461497e+00
6.781364809476467e-02	1.409286e+00
6.800000000000000e-02	1.362135e+00
6.808678913010824e-02	1.330727e+00
6.826036739032471e-02	1.268772e+00
6.860752391075763e-02	1.147679e+00
6.900000000000001e-02	1.013484e+00
6.906943130408659e-02	9.872997e-01
6.920829391225976e-02	9.287612e-01
6.948601912860609e-02	7.868207e-01
7.000000000000001e-02	4.839838e-01
7.005554504326927e-02	4.472929e-01
7.016663512980781e-02	3.769602e-01
7.038881530288488e-02	2.492854e-01
7.083317564903902e-02	2.111337e-02
7.100000000000001e-02	-5.650349e-02
7.105962704063506e-02	-8.194020e-02
7.117888112190518e-02	-1.330219e-01
7.141738928444541e-02	-2.360479e-01
7.189440560952585e-02	-4.437797e-01
7.200000000000001e-02	-4.900554e-01
7.204196907081765e-02	-5.067222e-01
7.212590721245295e-02	-5.360195e-01
7.229378349572355e-02	-5.768906e-01
7.262953606226474e-02	-6.105424e-01
7.300000000000000e-02	-6.040182e-01
7.306715051330824e-02	-5.943844e-01
7.320145153992472e-02	-5.753373e-01
7.347005359315767e-02	-5.381154e-01
7.400000000000000e-02	-4.661706e-01
7.402302528604764e-02	-4.630490e-01
7.406907585814293e-02	-4.566123e-01
7.416117700233350e-02	-4.428647e-01
7.434537929071466e-02	-4.122256e-01
7.471378386747697e-02	-3.434606e-01
7.500000000000000e-02	-2.853227e-01
7.507368091535246e-02	-2.731781e-01
7.522104274605738e-02	-2.571945e-01
7.551576640746724e-02	-2.552621e-01
7.592954841768901e-02	-2.915728e-01
7.600000000000000e-02	-3.027257e-01
7.605603551521389e-02	-3.132313e-01
7.616810654564170e-02	-3.322092e-01
7.639224860649729e-02	-3.615198e-01
7.684053272820848e-02	-4.022103e-01
7.700000000000000e-02	-4.116627e-01
7.708965682434224e-02	-4.125238e-01
7.726897047302672e-02	-4.099950e-01
7.762759777039567e-02	-3.912397e-01
7.800000000000000e-02	-3.596741e-01
7.807172545947379e-02	-3.496347e-01
7.821517637842137e-02	-3.264481e-01
7.850207821631654e-02	-2.678903e-01
7.900000000000000e-02	-1.478652e-01
7.905738036757903e-02	-1.332177e-01
7.917214110273710e-02	-1.077005e-01
7.940166257305323e-02	-7.030527e-02
7.970249645084954e-02	-4.280849e-02
8.000000000000000e-02	-3.243452e-02
8.003613966251394e-02	-3.298564e-02
8.010841898754181e-02	-3.380004e-02
8.025297763759758e-02	-3.417487e-02
8.054209493770910e-02	-3.104085e-02
8.100000000000000e-02	-2.090742e-02
8.105782346002231e-02	-1.929424e-02
8.117347038006692e-02	-1.701953e-02
8.140476422015613e-02	-1.572259e-02
8.166362953869585e-02	-1.886229e-02
8.200000000000000e-02	-2.767647e-02
8.204398324063494e-02	-2.884362e-02
8.213194972190481e-02	-2.985781e-02
8.230788268444456e-02	-2.717234e-02
8.252106134370611e-02	-1.558114e-02
8.290196599254605e-02	1.873001e-02
8.300000000000000e-02	3.003857e-02
8.303492877684618e-02	3.453410e-02
8.310478633053853e-02	4.302715e-02
8.324450143792322e-02	5.781355e-02
8.352393165269262e-02	8.034334e-02
8.400000000000001e-02	1.085959e-01
8.405588604295389e-02	1.107211e-01
8.416765812886165e-02	1.155242e-01
8.439120230067716e-02	1.274831e-01
8.483829064430819e-02	1.562940e-01
8.500000000000001e-02	1.681086e-01
8.507483073796850e-02	1.737725e-01
8.522449221390549e-02	1.844031e-01
8.552381516577948e-02	2.030362e-01
8.600000000000001e-02	2.290587e-01
8.605986459037480e-02	2.329350e-01
8.617959377112440e-02	2.431229e-01
8.641905213262359e-02	2.738088e-01
8.689796885562197e-02	3.552665e-01
8.700000000000001e-02	3.759559e-01
8.705089024433969e-02	3.856595e-01
8.715267073301906e-02	4.009761e-01
8.735623171037780e-02	4.139824e-01
8.776335366509529e-02	3.999479e-01
8.799999999999999e-02	3.731881e-01
8.806341992065893e-02	3.625228e-01
8.819025976197678e-02	3.434685e-01
8.844393944461248e-02	3.148994e-01
8.895129880988391e-02	2.753195e-01
8.900000000000000e-02	2.728229e-01
8.908289395681829e-02	2.696148e-01
8.924868187045487e-02	2.621504e-01
8.958025769772802e-02	2.436141e-01
9.000000000000000e-02	2.162383e-01
9.006631516545463e-02	2.111756e-01
9.019894549636390e-02	2.009501e-01
9.046420615818242e-02	1.800770e-01
9.100000000000000e-02	1.371579e-01
9.102420931035082e-02	1.353752e-01
9.105648839081858e-02	1.335962e-01
9.112104655175408e-02	1.319988e-01
9.125016287362511e-02	1.359641e-01
9.150839551736716e-02	1.673411e-01
9.198999800269254e-02	2.634813e-01
9.200000000000000e-02	2.660752e-01
9.201107063063307e-02	2.692941e-01
9.203321189189921e-02	2.754257e-01
9.207749441443150e-02	2.863604e-01
9.216605945949607e-02	3.032344e-01
9.234318954962523e-02	3.193009e-01
9.269744972988352e-02	3.081291e-01
9.300000000000000e-02	2.684438e-01
9.305251336870979e-02	2.574369e-01
9.315754010612938e-02	2.379949e-01
9.336759358096856e-02	2.101350e-01
9.378770053064692e-02	1.787280e-01
9.400000000000000e-02	1.726279e-01
9.405655168820229e-02	1.742019e-01
9.416965506460685e-02	1.792452e-01
9.439586181741599e-02	1.974302e-01
9.484827532303426e-02	2.504708e-01
9.500000000000000e-02	2.726541e-01
9.504333425956511e-02	2.778898e-01
9.513000277869534e-02	2.836399e-01
9.530333981695580e-02	2.752024e-01
9.562290430365500e-02	2.094801e-01
9.600000000000000e-02	8.333039e-02
9.604620277511824e-02	6.365903e-02
9.613860832535473e-02	2.855118e-02
9.628072144006752e-02	-1.462017e-02
9.642840785225898e-02	-4.381682e-02
9.669048916969136e-02	-6.422736e-02
9.696893698714611e-02	-6.003477e-02
9.700000000000000e-02	-5.747871e-02
9.702547399312046e-02	-5.459717e-02
9.707642197936137e-02	-4.929379e-02
9.717831795184317e-02	-4.071843e-02
9.738210989680680e-02	-2.969130e-02
9.765063987208776e-02	-2.535203e-02
9.799046840161776e-02	-3.035700e-02
9.800000000000000e-02	-3.069516e-02
9.801661328499911e-02	-3.138322e-02
9.804983985499734e-02	-3.250535e-02
9.811629299499378e-02	-3.360889e-02
9.824919927498667e-02	-3.159635e-02
9.851501183497244e-02	-1.590960e-02
9.882409143320456e-02	1.603761e-02
9.900000000000000e-02	4.018216e-02
9.903559622002735e-02	4.612556e-02
9.910678866008203e-02	5.827352e-02
9.924917354019142e-02	8.374378e-02
9.953394330041018e-02	1.383938e-01
1.000000000000000e-01	2.329465e-01
1.000569539520438e-01	2.431619e-01
1.001708618561313e-01	2.591181e-01
1.003986776643063e-01	2.722619e-01
1.008378417322167e-01	2.600091e-01
1.010000000000000e-01	2.445855e-01
1.010538121225283e-01	2.379161e-01
1.011614363675848e-01	2.276655e-01
1.013766848576979e-01	2.203745e-01
1.018071818379240e-01	2.342700e-01
1.020000000000000e-01	2.505992e-01
1.020555085148965e-01	2.559546e-01
1.021665255446895e-01	2.626638e-01
1.023885596042754e-01	2.590703e-01
1.028287088368019e-01	2.164991e-01
1.030000000000000e-01	1.890549e-01
1.030538563832935e-01	1.802015e-01
1.031615691498805e-01	1.681986e-01
1.033769946830545e-01	1.647867e-01
1.036557666994629e-01	1.945463e-01
1.040000000000000e-01	2.650785e-01
1.040466991969106e-01	2.783980e-01
1.041400975907319e-01	3.030955e-01
1.043268943783744e-01	3.440871e-01
1.047004879536594e-01	4.054118e-01
1.050000000000000e-01	4.411651e-01
1.050747187150570e-01	4.478527e-01
1.052241561451710e-01	4.634742e-01
1.055230310053990e-01	5.031908e-01
1.060000000000000e-01	5.782824e-01
1.060597749720456e-01	5.888600e-01
1.061793249161368e-01	6.087813e-01
1.064184248043192e-01	6.434072e-01
1.068966245806840e-01	7.024836e-01
1.070000000000000e-01	7.135396e-01
1.070956399552730e-01	7.210783e-01
1.072869198658189e-01	7.332181e-01
1.076694796869107e-01	7.485572e-01
1.080000000000000e-01	7.552885e-01
1.080765119642184e-01	7.536035e-01
1.082295358926551e-01	7.466888e-01
1.085355837495286e-01	7.197353e-01
1.090000000000000e-01	6.616238e-01
1.090612095713747e-01	6.529323e-01
1.091836287141241e-01	6.390043e-01
1.094284669996229e-01	6.257260e-01
1.099181435706204e-01	6.269609e-01
1.100000000000000e-01	6.307763e-01
1.100937598035104e-01	6.396796e-01
1.102812794105312e-01	6.604293e-01
1.106563186245729e-01	7.110516e-01
1.110000000000000e-01	7.645153e-01
1.110750078428083e-01	7.725247e-01
1.112250235284250e-01	7.777605e-01
1.115250548996583e-01	7.476310e-01
1.120000000000000e-01	6.442888e-01
1.120600062742467e-01	6.265409e-01
1.121800188227400e-01	5.988256e-01
1.124200439197267e-01	5.762866e-01
1.129000941137000e-01	5.951300e-01
1.130000000000000e-01	6.094165e-01
1.130600205950206e-01	6.217680e-01
1.131800617850619e-01	6.444230e-01
1.134201441651443e-01	6.811072e-01
1.139003089253093e-01	7.377275e-01
1.140000000000000e-01	7.467734e-01
1.140960329520330e-01	7.509769e-01
1.142880988560990e-01	7.543627e-01
1.146722306642309e-01	7.459081e-01
1.150000000000000e-01	7.277308e-01
1.150768263616264e-01	7.199276e-01
1.152304790848792e-01	7.023346e-01
1.155377845313848e-01	6.598118e-01
1.160000000000000e-01	5.863188e-01
1.160614610893011e-01	5.755959e-01
1.161843832679034e-01	5.552818e-01
1.164302276251078e-01	5.194226e-01
1.169219163395167e-01	4.567595e-01
1.170000000000000e-01	4.479246e-01
1.170976562500000e-01	4.353235e-01
1.172929687500000e-01	4.050185e-01
1.176835937500000e-01	3.291747e-01
1.180000000000000e-01	2.573495e-01
1.180781250000000e-01	2.424073e-01
1.182343750000000e-01	2.234337e-01
1.185468750000000e-01	2.221057e-01
1.189032384023347e-01	2.599673e-01
1.190000000000000e-01	2.781543e-01
1.190323828322730e-01	2.849914e-01
1.190971484968189e-01	2.964362e-01
1.192266798259109e-01	3.094003e-01
1.194857424840947e-01	3.027300e-01
1.199443661674443e-01	2.390922e-01
1.200000000000000e-01	2.265552e-01
1.200200662262886e-01	2.211383e-01
1.200601986788657e-01	2.111091e-01
1.201404635840199e-01	1.946525e-01
1.203009933943284e-01	1.748454e-01
1.206220530149454e-01	1.707677e-01
1.210000000000000e-01	2.005752e-01
1.210417227426462e-01	2.075580e-01
1.211251682279387e-01	2.203302e-01
1.212920591985236e-01	2.406825e-01
1.216258411396935e-01	2.672493e-01
1.220000000000000e-01	2.839792e-01
1.220667563882340e-01	2.816769e-01
1.222002691647019e-01	2.712973e-01
1.224672947176378e-01	2.277794e-01
1.229270082448694e-01	1.161327e-01
1.230000000000000e-01	9.395240e-02
1.230425274039054e-01	8.022831e-02
1.231275822117161e-01	5.504193e-02
1.232976918273375e-01	1.261608e-02
1.234947535335744e-01	-2.326159e-02
1.238381093488366e-01	-6.309926e-02
1.240000000000000e-01	-7.423242e-02
1.240319885654976e-01	-7.495824e-02
1.240959656964928e-01	-7.602874e-02
1.242239199584831e-01	-7.643383e-02
1.244798284824638e-01	-7.123286e-02
1.249916455304252e-01	-5.048312e-02
1.250000000000000e-01	-5.001410e-02
1.251169625740478e-01	-4.220313e-02
1.252506340872452e-01	-3.319085e-02
1.255179771136400e-01	-1.494301e-02
1.260000000000000e-01	1.829967e-02
1.260534686052790e-01	2.141342e-02
1.261604058158369e-01	2.630306e-02
1.263742802369528e-01	3.134586e-02
1.266349956350927e-01	2.988018e-02
1.270000000000000e-01	1.926475e-02
1.270367847145856e-01	1.716985e-02
1.271103541437568e-01	1.268328e-02
1.272574930020992e-01	2.517280e-03
1.274885531840807e-01	-1.650365e-02
1.279506735480437e-01	-5.996287e-02
1.280000000000000e-01	-6.503278e-02
1.280632899592827e-01	-7.236974e-02
1.281898698778481e-01	-8.796300e-02
1.284430297149789e-01	-1.230201e-01
1.289493493892404e-01	-2.002786e-01
1.290000000000000e-01	-2.085596e-01
1.290110062281732e-01	-2.104325e-01
1.290330186845196e-01	-2.141370e-01
1.290770435972123e-01	-2.213676e-01
1.291650934225977e-01	-2.351583e-01
1.293411930733687e-01	-2.603643e-01
1.296933923749106e-01	-3.049254e-01
1.300000000000000e-01	-3.395629e-01
1.300704398603084e-01	-3.480954e-01
1.302113195809251e-01	-3.683771e-01
1.304930790221586e-01	-4.217374e-01
1.310000000000000e-01	-5.378005e-01
1.310563518882467e-01	-5.504394e-01
1.311690556647401e-01	-5.692737e-01
1.313944632177269e-01	-5.794771e-01
1.318452783237005e-01	-5.431860e-01
1.320000000000000e-01	-5.154235e-01
1.320637076963396e-01	-5.001758e-01
1.321911230890188e-01	-4.725544e-01
1.324459538743771e-01	-4.293469e-01
1.329556154450938e-01	-3.649851e-01
1.330000000000000e-01	-3.608635e-01
1.330310543516345e-01	-3.581333e-01
1.330931630549034e-01	-3.513371e-01
1.332173804614413e-01	-3.317746e-01
1.334658152745171e-01	-2.719687e-01
1.339626849006686e-01	-1.156460e-01
1.340000000000000e-01	-1.017730e-01
1.340168433516794e-01	-9.504747e-02
1.340505300550382e-01	-8.216969e-02
1.341179034617558e-01	-5.898206e-02
1.342526502751911e-01	-2.209118e-02
1.345221439020616e-01	2.619302e-02
1.348101524134222e-01	4.988297e-02
1.350000000000000e-01	5.145087e-02
1.350857615344502e-01	4.693291e-02
1.352001102470504e-01	4.041205e-02
1.354288076722509e-01	2.581843e-02
1.358862025226518e-01	-6.364251e-03
1.360000000000000e-01	-1.495569e-02
1.360273865754399e-01	-1.723255e-02
1.360821597263195e-01	-2.202299e-02
1.361917060280789e-01	-3.267159e-02
1.364107986315977e-01	-5.773405e-02
1.368489838386352e-01	-1.154426e-01
1.370000000000000e-01	-1.373935e-01
1.370519306599651e-01	-1.437718e-01
1.371557919798953e-01	-1.527266e-01
1.373635146197556e-01	-1.557920e-01
1.376914566450361e-01	-1.317730e-01
1.380000000000000e-01	-8.743663e-02
1.380471778922500e-01	-7.815916e-02
1.381415336767501e-01	-6.128219e-02
1.383302452457503e-01	-3.386043e-02
1.386005122960232e-01	-6.013823e-03
1.388803127291118e-01	1.199041e-02
1.390000000000000e-01	1.647051e-02
1.390282554791460e-01	1.692146e-02
1.390847664374380e-01	1.765719e-02
1.391977883540221e-01	1.836163e-02
1.394238321871901e-01	1.728501e-02
1.397873878081137e-01	1.127559e-02
1.400000000000000e-01	5.793783e-03
1.400294108458879e-01	4.773841e-03
1.400882325376637e-01	2.677589e-03
1.402058759212153e-01	-1.772171e-03
1.404411626883184e-01	-1.157291e-02
1.409117362225246e-01	-3.286506e-02
1.410000000000000e-01	-3.710625e-02
1.410414017417967e-01	-3.938544e-02
1.411242052253902e-01	-4.439520e-02
1.412898121925771e-01	-5.639989e-02
1.416210261269510e-01	-8.586372e-02
1.420000000000000e-01	-1.247207e-01
1.420662427868748e-01	-1.316756e-01
1.421987283606243e-01	-1.438682e-01
1.424636995081234e-01	-1.610800e-01
1.429936418031215e-01	-1.828529e-01
1.430000000000000e-01	-1.829975e-01
1.430381491812708e-01	-1.832506e-01
1.430890147562986e-01	-1.831915e-01
1.431907459063541e-01	-1.817625e-01
1.433942082064651e-01	-1.743421e-01
1.438011328066872e-01	-1.497318e-01
1.440000000000000e-01	-1.338953e-01
1.440467100016343e-01	-1.278638e-01
1.441401300049028e-01	-1.124694e-01
1.443269700114398e-01	-6.915410e-02
1.445885900598469e-01	1.602085e-02
1.449786840428456e-01	1.735630e-01
1.450000000000000e-01	1.833306e-01
1.450126673262233e-01	1.894180e-01
1.450380019786700e-01	2.011360e-01
1.450886712835633e-01	2.225553e-01
1.451900098933499e-01	2.578284e-01
1.453926871129231e-01	3.058988e-01
1.456616648394123e-01	3.340370e-01
1.459367987753671e-01	3.315463e-01
1.460000000000000e-01	3.261719e-01
1.460891150301025e-01	3.141613e-01
1.462079350702392e-01	2.975621e-01
1.464455751505127e-01	2.625101e-01
1.469208553110595e-01	1.889637e-01
1.470000000000000e-01	1.762691e-01
1.470818008793511e-01	1.632028e-01
1.472454026380532e-01	1.378737e-01
1.475726061554576e-01	9.002051e-02
1.480000000000000e-01	3.065887e-02
1.480562477993059e-01	2.397932e-02
1.481687433979176e-01	1.204796e-02
1.483937345951412e-01	-7.118354e-03
1.486153114632636e-01	-1.976086e-02
1.490000000000000e-01	-3.303107e-02
1.490387913251972e-01	-3.333582e-02
1.491163739755916e-01	-3.368353e-02
1.492715392763805e-01	-3.321287e-02
1.495818698779582e-01	-2.886672e-02
1.500000000000000e-01	-1.919355e-02
1.500368286850119e-01	-1.769913e-02
1.501104860550358e-01	-1.412557e-02
1.502578007950834e-01	-4.903489e-03
1.504282790702866e-01	9.469043e-03
1.507692356206927e-01	4.620288e-02
1.510000000000000e-01	7.508869e-02
1.511318978150623e-01	9.519164e-02
1.513077615684787e-01	1.249050e-01
1.516594890753115e-01	1.909052e-01
1.520000000000000e-01	2.599997e-01
1.520703455013666e-01	2.707666e-01
1.522110365040997e-01	2.826814e-01
1.524924185095659e-01	2.717782e-01
1.528802470236054e-01	2.100797e-01
1.530000000000000e-01	1.801338e-01
1.530369665919404e-01	1.697728e-01
1.531108997758212e-01	1.519767e-01
1.532587661435827e-01	1.283677e-01
1.535078134994962e-01	1.185677e-01
1.538819453094186e-01	1.463122e-01
1.540000000000000e-01	1.650351e-01
1.540359356786254e-01	1.726797e-01
1.541078070358761e-01	1.872116e-01
1.542515497503775e-01	2.129645e-01
1.545390351793804e-01	2.541562e-01
1.550000000000000e-01	3.062937e-01
1.550574970858006e-01	3.091997e-01
1.551724912574017e-01	3.117689e-01
1.554024796006040e-01	3.031015e-01
1.558624562870086e-01	2.578011e-01
1.560000000000000e-01	2.376977e-01
1.560656946911088e-01	2.265709e-01
1.561970840733265e-01	2.063908e-01
1.564598628377619e-01	1.746886e-01
1.569854203666327e-01	1.266757e-01
1.570000000000000e-01	1.256723e-01
1.570291592667347e-01	1.244276e-01
1.570874778002041e-01	1.226996e-01
1.572041148671428e-01	1.226764e-01
1.574373890010204e-01	1.346402e-01
1.579039372687754e-01	1.812962e-01
1.580000000000000e-01	1.945597e-01
1.580548553131080e-01	2.019092e-01
1.581645659393238e-01	2.127023e-01
1.583839871917556e-01	2.181226e-01
1.587904539850093e-01	1.953651e-01
1.590000000000000e-01	1.702703e-01
1.590519328784338e-01	1.613931e-01
1.591557986353015e-01	1.441619e-01
1.593635301490367e-01	1.119243e-01
1.597789931765073e-01	5.239912e-02
1.600000000000000e-01	2.283261e-02
1.602492778164823e-01	-8.284540e-03
1.605794542112927e-01	-4.932207e-02
1.610000000000000e-01	-1.014271e-01
1.610660352789621e-01	-1.073865e-01
1.611981058368862e-01	-1.147068e-01
1.614622469527346e-01	-1.131283e-01
1.617963541451949e-01	-8.920885e-02
1.620000000000000e-01	-6.436536e-02
1.620477123498399e-01	-5.725122e-02
1.621431370495198e-01	-4.447601e-02
1.623339864488795e-01	-2.421428e-02
1.625825481739671e-01	-6.263371e-03
1.628259440593423e-01	3.308719e-03
1.630000000000000e-01	6.175882e-03
1.630130302752142e-01	6.103911e-03
1.630390908256426e-01	5.821658e-03
1.630912119264995e-01	4.695100e-03
1.631718310748024e-01	1.399253e-03
1.633330693714082e-01	-9.940691e-03
1.635742965326017e-01	-3.645059e-02
1.639183086393171e-01	-8.656733e-02
1.640000000000000e-01	-1.005759e-01
1.640381829346139e-01	-1.067652e-01
1.641145488038416e-01	-1.167607e-01
1.642672805422970e-01	-1.279853e-01
1.644644792460449e-01	-1.281723e-01
1.646657460638182e-01	-1.117591e-01
1.649324350110058e-01	-7.237232e-02
1.650000000000000e-01	-5.946450e-02
1.650308096255186e-01	-5.304985e-02
1.650924288765559e-01	-4.120837e-02
1.652156673786304e-01	-2.137347e-02
1.653979823667303e-01	-1.978397e-04
1.656472050999945e-01	1.583296e-02
1.658990692898195e-01	2.075499e-02
1.660000000000000e-01	1.960634e-02
1.660267740656773e-01	1.879073e-02
1.660803221970320e-01	1.731220e-02
1.661874184597412e-01	1.502606e-02
1.664016109851598e-01	1.255486e-02
1.667199394179543e-01	1.251081e-02
1.670000000000000e-01	1.501253e-02
1.670363192538721e-01	1.517758e-02
1.671089577616162e-01	1.450015e-02
1.672388081063820e-01	1.026335e-02
1.673706428672302e-01	1.760861e-03
1.675741240294841e-01	-1.882136e-02
1.677998059196689e-01	-4.961359e-02
1.680000000000000e-01	-8.225796e-02
1.680296634297872e-01	-8.728765e-02
1.680889902893616e-01	-9.612231e-02
1.682076440085103e-01	-1.083074e-01
1.684449514468078e-01	-1.163067e-01
1.687580056588188e-01	-1.031342e-01
1.690000000000000e-01	-7.860074e-02
1.690369821509668e-01	-7.315876e-02
1.691109464529003e-01	-6.285550e-02
1.692588750567675e-01	-4.478941e-02
1.695547322645017e-01	-1.607441e-02
1.699507878398651e-01	1.366028e-02
1.700000000000000e-01	1.655043e-02
1.700203627389014e-01	1.745727e-02
1.700610882167042e-01	1.906802e-02
1.701425391723099e-01	2.135779e-02
1.703054410835212e-01	2.253327e-02
1.706312449059437e-01	1.617679e-02
1.709470041503914e-01	2.691365e-03
1.710000000000000e-01	-4.648812e-04
1.710064980392243e-01	-9.151580e-04
1.710194941176728e-01	-1.822105e-03
1.710454862745698e-01	-3.668285e-03
1.710974705883639e-01	-7.489838e-03
1.712014392159520e-01	-1.561321e-02
1.714093764711282e-01	-3.352676e-02
1.718252509814807e-01	-7.282699e-02
1.720000000000000e-01	-9.050078e-02
1.720726209853869e-01	-9.884322e-02
1.722178629561607e-01	-1.167348e-01
1.725083468977083e-01	-1.571950e-01
1.730000000000000e-01	-2.325530e-01
1.731607100361846e-01	-2.585565e-01
1.733749900844306e-01	-2.904333e-01
1.738035501809227e-01	-3.489523e-01
1.740000000000000e-01	-3.738746e-01
1.740857120192984e-01	-3.789391e-01
1.742571360578953e-01	-3.787919e-01
1.745999841350890e-01	-3.440723e-01
1.750000000000000e-01	-2.692659e-01
1.750546421553859e-01	-2.554268e-01
1.751639264661575e-01	-2.309611e-01
1.753824950877009e-01	-1.957439e-01
1.758196323307876e-01	-1.544477e-01
1.760000000000000e-01	-1.469116e-01
1.760500532959229e-01	-1.461366e-01
1.761501598877688e-01	-1.425634e-01
1.763503730714606e-01	-1.266984e-01
1.767507994388443e-01	-7.485938e-02
1.770000000000000e-01	-3.257169e-02
1.770498953006636e-01	-2.380951e-02
1.771496859019907e-01	-8.931637e-03
1.772749663490894e-01	4.514557e-03
1.773887436792052e-01	1.090719e-02
1.775437504717192e-01	1.110798e-02
1.777399772326560e-01	5.291316e-04
1.779487405121876e-01	-2.026261e-02
1.780000000000000e-01	-2.697087e-02
1.780291049941491e-01	-3.113210e-02
1.780873149824472e-01	-3.886583e-02
1.782037349590435e-01	-5.172031e-02
1.784365749122361e-01	-6.831323e-02
1.789022548186213e-01	-8.421475e-02
1.790000000000000e-01	-8.471715e-02
1.790433732032389e-01	-8.422334e-02
1.791301196097168e-01	-8.378456e-02
1.793036124226725e-01	-8.529201e-02
1.796505980485840e-01	-9.457766e-02
1.800000000000000e-01	-1.090979e-01
1.800693971251823e-01	-1.094463e-01
1.802081913755469e-01	-1.026087e-01
1.804857798762760e-01	-6.480324e-02
1.807483680472972e-01	-3.470294e-03
1.810000000000000e-01	7.408394e-02
1.810364953765003e-01	8.637263e-02
1.811094861295009e-01	1.080868e-01
1.812554676355021e-01	1.397968e-01
1.815002064154299e-01	1.650524e-01
1.818209943855158e-01	1.613662e-01
1.820000000000000e-01	1.439494e-01
1.820378984360803e-01	1.380436e-01
1.821136953082409e-01	1.272140e-01
1.822652890525620e-01	1.095535e-01
1.825232847690737e-01	8.852884e-02
1.827973665473070e-01	7.602753e-02
1.830000000000000e-01	7.219838e-02
1.830255858911887e-01	7.228981e-02
1.830767576735660e-01	7.250003e-02
1.831791012383208e-01	7.306223e-02
1.833837883678303e-01	7.470368e-02
1.837931626268492e-01	7.909964e-02
1.840000000000000e-01	8.176944e-02
1.840424806317209e-01	8.318891e-02
1.841274418951626e-01	8.778276e-02
1.842973644220460e-01	1.043245e-01
1.846035336963009e-01	1.527281e-01
1.850000000000000e-01	2.352528e-01
1.850481658020421e-01	2.464780e-01
1.851444974061263e-01	2.657095e-01
1.853371606142948e-01	2.902338e-01
1.857224870306317e-01	3.059592e-01
1.860000000000000e-01	2.979434e-01
1.861626530331692e-01	2.824413e-01
1.863795237440615e-01	2.620662e-01
1.868132651658460e-01	2.218425e-01
1.870000000000000e-01	2.047052e-01
1.870867482843569e-01	1.959900e-01
1.872602448530707e-01	1.768957e-01
1.876072379904984e-01	1.331922e-01
1.880000000000000e-01	7.840081e-02
1.880693986274855e-01	6.982549e-02
1.882081958824566e-01	5.679202e-02
1.884530747308822e-01	4.559606e-02
1.886993905959690e-01	4.848423e-02
1.890000000000000e-01	6.526102e-02
1.890368305921483e-01	6.837340e-02
1.891104917764449e-01	7.353351e-02
1.892578141450381e-01	7.915300e-02
1.895524588822246e-01	7.603960e-02
1.900000000000000e-01	5.303703e-02
1.900459720472628e-01	4.864146e-02
1.901379161417883e-01	4.025671e-02
1.903218043308395e-01	2.524320e-02
1.906895807089418e-01	-4.071678e-04
1.910000000000000e-01	-1.905865e-02
1.910503199168686e-01	-2.175646e-02
1.911509597506057e-01	-2.750795e-02
1.913522394180799e-01	-4.054399e-02
1.917547987530284e-01	-7.013471e-02
1.920000000000000e-01	-8.987419e-02
1.920632860081473e-01	-9.361199e-02
1.921898580244418e-01	-9.736047e-02
1.924430020570309e-01	-9.161971e-02
1.927664274012983e-01	-6.553915e-02
1.930000000000000e-01	-3.621107e-02
1.930415675994259e-01	-3.021849e-02
1.931247027982777e-01	-1.980299e-02
1.932506969967341e-01	-7.960710e-03
1.933796018931400e-01	-7.604733e-04
1.935223419638504e-01	1.601194e-03
1.936681383319029e-01	-1.457694e-03
1.938312560320485e-01	-1.070710e-02
1.940000000000000e-01	-2.455168e-02
1.940234910465354e-01	-2.697700e-02
1.940704731396062e-01	-3.160173e-02
1.941644373257477e-01	-3.985387e-02
1.943523656980309e-01	-5.318585e-02
1.946340419355003e-01	-6.737451e-02
1.949140911991371e-01	-7.638334e-02
1.950000000000000e-01	-7.806255e-02
1.950403107279428e-01	-7.766388e-02
1.951209321838284e-01	-7.493409e-02
1.952821750955996e-01	-6.198596e-02
1.955203999312126e-01	-2.721213e-02
1.958581367606354e-01	4.335563e-02
1.960000000000000e-01	7.950019e-02
1.960317149024508e-01	8.782867e-02
1.960951447073525e-01	1.024096e-01
1.962220043171559e-01	1.237156e-01
1.963954487668852e-01	1.389403e-01
1.965731046383914e-01	1.382564e-01
1.967884069610848e-01	1.180411e-01
1.970000000000000e-01	8.481932e-02
1.970277841175840e-01	7.821937e-02
1.970833523527520e-01	6.373509e-02
1.971944888230879e-01	2.946172e-02
1.973758701216022e-01	-4.025306e-02
1.976809051682780e-01	-1.858563e-01
1.980000000000000e-01	-3.616520e-01
1.980269042949889e-01	-3.772134e-01
1.980807128849666e-01	-4.051844e-01
1.981883300649220e-01	-4.469505e-01
1.984035644248327e-01	-4.862822e-01
1.987158599288591e-01	-4.685116e-01
1.990000000000000e-01	-3.981619e-01
1.990374844321854e-01	-3.828615e-01
1.991124532965563e-01	-3.541188e-01
1.992623910252980e-01	-3.047578e-01
1.995622664827814e-01	-2.304084e-01
2.000000000000000e-01	-1.516296e-01
2.000599750914967e-01	-1.453569e-01
2.001799252744901e-01	-1.323037e-01
2.004198256404768e-01	-1.040690e-01
2.008996263724503e-01	-4.346824e-02
2.010000000000000e-01	-3.011713e-02
2.010119446164562e-01	-2.850260e-02
2.010278707717311e-01	-2.656381e-02
2.010597230822809e-01	-2.332829e-02
2.011234277033805e-01	-1.929370e-02
2.012508369455798e-01	-1.917356e-02
2.014461348323358e-01	-3.506705e-02
2.016663815506592e-01	-7.555468e-02
2.020000000000000e-01	-1.634287e-01
2.020338982155152e-01	-1.737500e-01
2.021016946465455e-01	-1.910384e-01
2.022372875086062e-01	-2.110873e-01
2.024930933659287e-01	-2.078608e-01
2.028572910934280e-01	-1.463381e-01
2.030000000000000e-01	-1.052911e-01
2.030394726806573e-01	-9.178346e-02
2.031184180419717e-01	-6.800134e-02
2.032763087646006e-01	-3.147592e-02
2.034441424759520e-01	-7.039150e-03
2.036173861349253e-01	2.966237e-03
2.037742916043177e-01	3.965358e-05
2.039224527748596e-01	-1.148411e-02
2.040000000000000e-01	-2.041700e-02
2.040218417997817e-01	-2.353411e-02
2.040655253993451e-01	-2.968482e-02
2.041528925984718e-01	-4.165770e-02
2.043276269967252e-01	-6.445184e-02
2.046770957932321e-01	-1.071566e-01
2.050000000000000e-01	-1.444389e-01
2.052096812779042e-01	-1.674952e-01
2.054892563151097e-01	-1.988310e-01
2.060000000000000e-01	-2.568846e-01
2.060559150074411e-01	-2.625061e-01
2.061677450223234e-01	-2.719414e-01
2.063914050520878e-01	-2.830955e-01
2.068387251116166e-01	-2.893547e-01
2.070000000000000e-01	-2.870542e-01
2.070522272151028e-01	-2.858194e-01
2.071566816453084e-01	-2.849391e-01
2.073655905057196e-01	-2.900029e-01
2.077834082265420e-01	-3.152612e-01
2.080000000000000e-01	-3.345977e-01
2.080835635441645e-01	-3.425094e-01
2.082506906324935e-01	-3.548861e-01
2.085849448091514e-01	-3.678424e-01
2.090000000000000e-01	-3.713909e-01
2.090668508353316e-01	-3.726231e-01
2.092005525059948e-01	-3.811642e-01
2.094679558473211e-01	-4.235547e-01
2.100000000000000e-01	-5.520046e-01
2.100534806682653e-01	-5.664996e-01
2.101604420047958e-01	-5.868054e-01
2.103743646778569e-01	-5.901959e-01
2.108022100239790e-01	-5.162522e-01
2.110000000000000e-01	-4.524744e-01
2.110539671819803e-01	-4.302952e-01
2.111619015459410e-01	-3.908127e-01
2.113777702738624e-01	-3.326828e-01
2.118095077297051e-01	-2.612094e-01
2.120000000000000e-01	-2.453233e-01
2.120527781107424e-01	-2.464089e-01
2.121583343322271e-01	-2.523459e-01
2.123694467751966e-01	-2.804296e-01
2.127916716611357e-01	-3.722117e-01
2.130000000000000e-01	-4.314606e-01
2.130630066226049e-01	-4.497719e-01
2.131890198678148e-01	-4.793439e-01
2.134410463582345e-01	-5.088482e-01
2.139450993390739e-01	-5.129252e-01
2.140000000000000e-01	-5.087414e-01
2.140612012968715e-01	-5.000730e-01
2.141836038906146e-01	-4.820162e-01
2.144284090781008e-01	-4.428259e-01
2.149180194530732e-01	-3.585644e-01
2.150000000000000e-01	-3.436911e-01
2.150628427235847e-01	-3.340768e-01
2.151885281707542e-01	-3.195365e-01
2.154398990650931e-01	-3.101854e-01
2.159426408537710e-01	-3.281472e-01
2.160000000000000e-01	-3.334332e-01
2.160592151796260e-01	-3.418066e-01
2.161776455388779e-01	-3.596883e-01
2.164145062573819e-01	-4.002875e-01
2.168882276943897e-01	-4.910175e-01
2.170000000000000e-01	-5.141801e-01
2.170386129368735e-01	-5.210104e-01
2.171158388106204e-01	-5.309722e-01
2.172702905581143e-01	-5.345573e-01
2.175791940531020e-01	-4.939020e-01
2.180000000000000e-01	-3.842697e-01
2.180617806989975e-01	-3.567247e-01
2.181853420969926e-01	-2.967240e-01
2.184324648929828e-01	-1.562757e-01
2.189084540491670e-01	1.521235e-01
2.190000000000000e-01	2.170831e-01
2.190602217809327e-01	2.613213e-01
2.191806653427981e-01	3.471293e-01
2.194215524665288e-01	5.074839e-01
2.199033267139903e-01	8.063874e-01
2.200000000000000e-01	8.629538e-01
2.200810640963257e-01	9.061789e-01
2.202431922889772e-01	9.886490e-01
2.205409901578269e-01	1.126645e+00
2.210000000000000e-01	1.321434e+00
2.210595595737699e-01	1.342475e+00
2.211786787213098e-01	1.381301e+00
2.214169170163895e-01	1.445141e+00
2.218933936065489e-01	1.545763e+00
2.220000000000000e-01	1.563556e+00
2.220952953180319e-01	1.574033e+00
2.222858859540957e-01	1.590643e+00
2.226670672262232e-01	1.610589e+00
2.230000000000000e-01	1.618217e+00
2.230762362544255e-01	1.611272e+00
2.232287087632765e-01	1.584195e+00
2.235336537809786e-01	1.481055e+00
2.240000000000000e-01	1.258562e+00
2.240609890035404e-01	1.221062e+00
2.241829670106212e-01	1.149378e+00
2.244269230247828e-01	1.019965e+00
2.249148350531061e-01	7.878208e-01
2.250000000000000e-01	7.509161e-01
2.250975824056647e-01	7.138332e-01
2.252927472169940e-01	6.438465e-01
2.256830768396526e-01	5.163839e-01
2.260000000000000e-01	4.214536e-01
2.260780659245317e-01	3.976680e-01
2.262341977735952e-01	3.450027e-01
2.265464614717221e-01	2.211595e-01
2.270000000000000e-01	1.810504e-02
2.270624527396254e-01	-1.126895e-02
2.271873582188761e-01	-6.551368e-02
2.274079812486134e-01	-1.461493e-01
2.277573170545605e-01	-2.467314e-01
2.280000000000000e-01	-3.020175e-01
2.280604927724884e-01	-3.125354e-01
2.281814783174652e-01	-3.336389e-01
2.284234494074188e-01	-3.761065e-01
2.289073915873260e-01	-4.615337e-01
2.290000000000000e-01	-4.779547e-01
2.290967884359814e-01	-4.969177e-01
2.292903653079443e-01	-5.383001e-01
2.296775190518701e-01	-6.314688e-01
2.300000000000000e-01	-7.163792e-01
2.300774307487852e-01	-7.338556e-01
2.302322922463555e-01	-7.592615e-01
2.305420152414961e-01	-7.751188e-01
2.310000000000000e-01	-7.539629e-01
2.310588170343890e-01	-7.455363e-01
2.311764511031671e-01	-7.307488e-01
2.314117192407233e-01	-7.098984e-01
2.318822555158357e-01	-6.854733e-01
2.320000000000000e-01	-6.827398e-01
2.320941072550225e-01	-6.803036e-01
2.322823217650675e-01	-6.707399e-01
2.326587507851574e-01	-6.371468e-01
2.330000000000000e-01	-5.956073e-01
2.330398233424421e-01	-5.894374e-01
2.331194700273262e-01	-5.770909e-01
2.332787633970945e-01	-5.523552e-01
2.335973501366310e-01	-5.027543e-01
2.340000000000000e-01	-4.399304e-01
2.340637173479073e-01	-4.279841e-01
2.341911520437220e-01	-3.999193e-01
2.344460214353512e-01	-3.262582e-01
2.349557602186097e-01	-1.467963e-01
2.350000000000000e-01	-1.290672e-01
2.350164227467425e-01	-1.221618e-01
2.350492682402274e-01	-1.089999e-01
2.351149592271972e-01	-8.559576e-02
2.352463412011369e-01	-4.960232e-02
2.355091051490163e-01	-3.819243e-03
2.356997668928728e-01	9.955431e-03
2.358607643738031e-01	6.852713e-03
2.360000000000000e-01	-3.193974e-03
2.360232780884609e-01	-5.935388e-03
2.360543155397420e-01	-9.644775e-03
2.361163904423043e-01	-1.730971e-02
2.362405402474288e-01	-3.354428e-02
2.364888398576778e-01	-6.907392e-02
2.370000000000000e-01	-1.478100e-01
2.370291218436482e-01	-1.523510e-01
2.370873655309447e-01	-1.606324e-01
2.372038529055376e-01	-1.735961e-01
2.374368276547234e-01	-1.869367e-01
2.379027771530951e-01	-1.897673e-01
2.380000000000000e-01	-1.864684e-01
2.380554796361715e-01	-1.838946e-01
2.381664389085145e-01	-1.809039e-01
2.383883574532006e-01	-1.841159e-01
2.388321945425727e-01	-2.097946e-01
2.390000000000000e-01	-2.252436e-01
2.390646225748257e-01	-2.323024e-01
2.391938677244772e-01	-2.448627e-01
2.394523580237801e-01	-2.634655e-01
2.399693386223860e-01	-2.888925e-01
2.400000000000000e-01	-2.898621e-01
2.400613227552281e-01	-2.903112e-01
2.401839682656842e-01	-2.896132e-01
2.404292592865965e-01	-2.814698e-01
2.409198413284211e-01	-2.523373e-01
2.410000000000000e-01	-2.459473e-01
2.410932196043774e-01	-2.351143e-01
2.412796588131322e-01	-2.094526e-01
2.416525372306417e-01	-1.456917e-01
2.420000000000000e-01	-7.646642e-02
2.420720327779445e-01	-6.103880e-02
2.422160983338335e-01	-3.227566e-02
2.425042294456115e-01	1.784425e-02
2.428829472447521e-01	7.428148e-02
2.430000000000000e-01	8.952919e-02
2.430578732950284e-01	9.511945e-02
2.431736198850853e-01	1.037678e-01
2.434051130651991e-01	1.110969e-01
2.437866143324594e-01	1.051978e-01
2.440000000000000e-01	9.401236e-02
2.440505140004830e-01	8.925085e-02
2.441515420014491e-01	7.864162e-02
2.443535980033811e-01	5.271943e-02
2.447577100072453e-01	-9.894255e-03
2.450000000000000e-01	-5.260020e-02
2.450503503918517e-01	-6.161112e-02
2.451510511755551e-01	-7.777121e-02
2.453524527429619e-01	-1.023667e-01
2.457201178355646e-01	-1.304321e-01
2.460000000000000e-01	-1.415219e-01
2.460557998436541e-01	-1.402683e-01
2.461673995309623e-01	-1.345486e-01
2.463905989055788e-01	-1.105929e-01
2.467454468945263e-01	-4.964301e-02
2.470000000000000e-01	7.039098e-03
2.470450752848462e-01	1.821097e-02
2.471352258545387e-01	3.853759e-02
2.473016157068075e-01	6.887277e-02
2.475543559275971e-01	9.854538e-02
2.480000000000000e-01	1.270369e-01
2.480495472545312e-01	1.277618e-01
2.481486417635936e-01	1.306529e-01
2.483468307817183e-01	1.426475e-01
2.487432088179679e-01	1.810990e-01
2.490000000000000e-01	2.135277e-01
2.490383880808023e-01	2.186749e-01
2.491151642424070e-01	2.272557e-01
2.492687165656164e-01	2.368520e-01
2.495758212120352e-01	2.337871e-01
2.500000000000000e-01	2.039335e-01
2.500490882023387e-01	1.964130e-01
2.501472646070160e-01	1.799466e-01
2.503436174163707e-01	1.408228e-01
2.507363230350800e-01	4.801848e-02
2.510000000000000e-01	-2.214689e-02
2.510612680482101e-01	-3.793112e-02
2.511838041446302e-01	-6.481563e-02
2.514212558427127e-01	-1.010733e-01
2.517087695558327e-01	-1.221734e-01
2.520000000000000e-01	-1.254728e-01
2.521454155539123e-01	-1.177517e-01
2.523393029591288e-01	-1.054425e-01
2.527270777695616e-01	-7.665323e-02
2.530000000000000e-01	-5.402791e-02
2.530134187041131e-01	-5.280035e-02
2.530313103095972e-01	-5.115313e-02
2.530670935205655e-01	-4.782159e-02
2.531386599425020e-01	-4.101755e-02
2.532817927863750e-01	-2.689930e-02
2.535680584741211e-01	2.860088e-03
2.540000000000000e-01	4.969432e-02
2.540120683625797e-01	5.106900e-02
2.540281595126859e-01	5.291215e-02
2.540603418128984e-01	5.663130e-02
2.541247064133233e-01	6.419453e-02
2.542534356141731e-01	7.977770e-02
2.545108940158728e-01	1.124504e-01
2.550000000000000e-01	1.769595e-01
2.551544750410198e-01	1.965044e-01
2.553604417623795e-01	2.188114e-01
2.557723752050990e-01	2.561222e-01
2.560000000000000e-01	2.735201e-01
2.560823866885439e-01	2.814538e-01
2.562471600656317e-01	3.027920e-01
2.565767068198073e-01	3.644381e-01
2.570000000000000e-01	4.645115e-01
2.570659093508351e-01	4.842840e-01
2.571977280525053e-01	5.249702e-01
2.574613654558458e-01	6.111369e-01
2.579886402625267e-01	7.919776e-01
2.580000000000000e-01	7.960162e-01
2.580227194749466e-01	8.037395e-01
2.580681584248398e-01	8.178648e-01
2.581590363246261e-01	8.401206e-01
2.583407921241988e-01	8.630197e-01
2.587043037233442e-01	8.566890e-01
2.590000000000000e-01	8.171011e-01
2.590421545702674e-01	8.071582e-01
2.591264637108021e-01	7.886556e-01
2.592950819918715e-01	7.576614e-01
2.596323185540104e-01	7.118893e-01
2.600000000000000e-01	6.765238e-01
2.600674473124278e-01	6.738816e-01
2.602023419372833e-01	6.706272e-01
2.604721311869944e-01	6.725230e-01
2.610000000000000e-01	6.906299e-01
2.610539578499422e-01	6.936883e-01
2.611618735498267e-01	6.984133e-01
2.613777049495956e-01	7.019083e-01
2.618093677491333e-01	6.960930e-01
2.620000000000000e-01	6.890462e-01
2.620863325599075e-01	6.840530e-01
2.622589976797227e-01	6.739619e-01
2.626043279193528e-01	6.534239e-01
2.630000000000000e-01	6.295424e-01
2.630690660479261e-01	6.262454e-01
2.632071981437781e-01	6.216055e-01
2.634834623354823e-01	6.202375e-01
2.640000000000000e-01	6.305962e-01
2.640552528383409e-01	6.336333e-01
2.641657585150225e-01	6.401585e-01
2.643867698683858e-01	6.551457e-01
2.648287925751125e-01	6.891981e-01
2.650000000000000e-01	7.036337e-01
2.650884045413454e-01	7.145677e-01
2.652652136240360e-01	7.423449e-01
2.656188317894174e-01	8.171661e-01
2.660000000000000e-01	9.154937e-01
2.660707236330763e-01	9.332476e-01
2.662121708992288e-01	9.604756e-01
2.664950654315338e-01	9.821071e-01
2.670000000000000e-01	9.696869e-01
2.670565789064610e-01	9.640056e-01
2.671697367193830e-01	9.584969e-01
2.673960523452271e-01	9.723925e-01
2.678486835969152e-01	1.051407e+00
2.680000000000000e-01	1.091285e+00
2.680451150657639e-01	1.103360e+00
2.681353451972917e-01	1.120705e+00
2.683158054603472e-01	1.125698e+00
2.686767259864582e-01	1.060271e+00
2.690000000000000e-01	9.466887e-01
2.690721841052222e-01	9.116299e-01
2.692165523156667e-01	8.474144e-01
2.695052887365555e-01	7.419218e-01
2.700000000000000e-01	5.953298e-01
2.700577472841778e-01	5.859828e-01
2.701732418525333e-01	5.735287e-01
2.704042309892444e-01	5.751807e-01
2.708662092626665e-01	6.320651e-01
2.710000000000000e-01	6.606992e-01
2.710676033255778e-01	6.772360e-01
2.712028099767335e-01	7.043836e-01
2.714732232790447e-01	7.342667e-01
2.720000000000000e-01	7.508802e-01
2.720540826604623e-01	7.479948e-01
2.721622479813868e-01	7.439108e-01
2.723785786232357e-01	7.429377e-01
2.728112399069337e-01	7.564210e-01
2.730000000000000e-01	7.676327e-01
2.730865322567396e-01	7.737638e-01
2.732595967702188e-01	7.837852e-01
2.736057257971772e-01	7.963929e-01
2.740000000000000e-01	8.035317e-01
2.740692258053917e-01	8.022522e-01
2.742076774161750e-01	7.972812e-01
2.744845806377417e-01	7.775847e-01
2.750000000000000e-01	7.250699e-01
2.750553806443133e-01	7.178332e-01
2.751661419329400e-01	7.044811e-01
2.753876645101934e-01	6.825573e-01
2.758307096647001e-01	6.487389e-01
2.760000000000000e-01	6.388394e-01
2.760740120426831e-01	6.316782e-01
2.762220361280494e-01	6.092234e-01
2.765180842987818e-01	5.333330e-01
2.770000000000000e-01	3.660721e-01
2.770592096341465e-01	3.425141e-01
2.771776289024395e-01	3.026863e-01
2.774144674390255e-01	2.511395e-01
2.777886515514708e-01	2.180673e-01
2.780000000000000e-01	2.207381e-01
2.780449435169080e-01	2.245823e-01
2.781348305507240e-01	2.309228e-01
2.783146046183559e-01	2.377640e-01
2.786741527536197e-01	2.365839e-01
2.790000000000000e-01	2.245444e-01
2.790719096270528e-01	2.200385e-01
2.792157288811583e-01	2.123383e-01
2.795033673893694e-01	2.020530e-01
2.800000000000000e-01	1.919717e-01
2.800575277016422e-01	1.909305e-01
2.801725831049267e-01	1.868064e-01
2.804026939114955e-01	1.698772e-01
2.808629155246332e-01	1.184489e-01
2.810000000000000e-01	9.902627e-02
2.810628557735659e-01	8.869284e-02
2.811885673206976e-01	6.819691e-02
2.814399904149609e-01	2.791244e-02
2.820000000000000e-01	-6.024101e-02
2.822929687500000e-01	-1.043421e-01
2.826835937500000e-01	-1.615955e-01
2.830000000000000e-01	-2.071071e-01
2.830781250000000e-01	-2.152992e-01
2.832343750000000e-01	-2.258794e-01
2.835468750000000e-01	-2.259491e-01
2.840000000000000e-01	-1.996814e-01
2.840503331891909e-01	-1.936131e-01
2.841509995675728e-01	-1.820138e-01
2.843523323243364e-01	-1.611122e-01
2.847549978378637e-01	-1.245716e-01
2.850000000000000e-01	-1.049021e-01
2.850321228787671e-01	-1.025140e-01
2.850963686363011e-01	-9.745678e-02
2.852248601513692e-01	-8.608923e-02
2.854818431815054e-01	-5.903570e-02
2.859958092417778e-01	2.472710e-03
2.860000000000000e-01	3.020566e-03
2.860083815164446e-01	4.156461e-03
2.860251445493337e-01	6.331020e-03
2.860586706151119e-01	1.026549e-02
2.861257227466684e-01	1.656677e-02
2.862598270097813e-01	2.346361e-02
2.865280355360070e-01	2.254375e-02
2.867761444430022e-01	7.177390e-03
2.870000000000000e-01	-1.672869e-02
2.870301938075993e-01	-2.030450e-02
2.870905814227977e-01	-2.573572e-02
2.872009959371594e-01	-3.037609e-02
2.873124901097167e-01	-2.695303e-02
2.875354784548313e-01	-1.204807e-03
2.877381747740411e-01	3.968722e-02
2.879563871565317e-01	9.933034e-02
2.880000000000000e-01	1.131403e-01
2.880099254756068e-01	1.165218e-01
2.880297764268204e-01	1.231272e-01
2.880694783292475e-01	1.356845e-01
2.881488821341018e-01	1.583594e-01
2.883076897438103e-01	1.957746e-01
2.885603459366041e-01	2.379418e-01
2.889046424263496e-01	2.737267e-01
2.890000000000000e-01	2.792737e-01
2.890451015188530e-01	2.796214e-01
2.891353045565591e-01	2.785431e-01
2.893157106319713e-01	2.686090e-01
2.896765227827955e-01	2.289638e-01
2.900000000000000e-01	1.789895e-01
2.900721624301648e-01	1.664195e-01
2.902164872904945e-01	1.451546e-01
2.905051370111540e-01	1.171789e-01
2.909543559146556e-01	9.416431e-02
2.910000000000000e-01	9.339336e-02
2.910481119065192e-01	9.389640e-02
2.911443357195578e-01	9.544867e-02
2.913367833456350e-01	1.009380e-01
2.917216785977893e-01	1.176331e-01
2.920000000000000e-01	1.330371e-01
2.920769790504308e-01	1.361513e-01
2.922309371512926e-01	1.381985e-01
2.925388533530160e-01	1.269053e-01
2.930000000000000e-01	9.009314e-02
2.930463722132234e-01	8.399729e-02
2.931391166396704e-01	7.169271e-02
2.933246054925643e-01	4.657467e-02
2.936955831983522e-01	-4.929809e-03
2.940000000000000e-01	-4.803651e-02
2.940489117703758e-01	-5.411537e-02
2.941467353111276e-01	-6.412846e-02
2.943423823926309e-01	-7.608133e-02
2.946199512440875e-01	-7.750806e-02
2.950000000000000e-01	-6.219165e-02
2.950447832145895e-01	-5.854800e-02
2.951343496437685e-01	-5.200309e-02
2.953134825021265e-01	-4.206216e-02
2.956531065969606e-01	-3.101921e-02
2.960000000000000e-01	-2.624526e-02
2.960417201477346e-01	-2.600980e-02
2.961251604432037e-01	-2.446585e-02
2.962920410341420e-01	-1.774427e-02
2.964646151850918e-01	-5.485458e-03
2.967638039964072e-01	2.561800e-02
2.970000000000000e-01	5.577863e-02
2.970359131602822e-01	6.093245e-02
2.971077394808465e-01	7.062206e-02
2.972513921219752e-01	8.727103e-02
2.975386974042326e-01	1.120414e-01
2.980000000000000e-01	1.402958e-01
2.980510934367180e-01	1.415944e-01
2.981532803101540e-01	1.435383e-01
2.983576540570259e-01	1.446017e-01
2.987664015507698e-01	1.403311e-01
2.990000000000000e-01	1.349706e-01
2.990817494987488e-01	1.340320e-01
2.992452484962463e-01	1.359604e-01
2.995722464912414e-01	1.531018e-01
3.000000000000000e-01	1.904362e-01
3.000535028419800e-01	1.945661e-01
3.001605085259399e-01	1.971293e-01
3.003745198938597e-01	1.807472e-01
3.006863706453670e-01	1.181538e-01
3.010000000000000e-01	2.411582e-02
3.010245123017655e-01	1.478556e-02
3.010735369052966e-01	-2.883732e-03
3.011715861123589e-01	-3.446322e-02
3.013063708234572e-01	-6.928860e-02
3.015759402456539e-01	-1.145038e-01
3.019849868236119e-01	-1.526380e-01
3.020000000000000e-01	-1.531923e-01
3.020254722853151e-01	-1.533977e-01
3.020764168559454e-01	-1.541421e-01
3.021783059972061e-01	-1.571089e-01
3.023820842797273e-01	-1.682816e-01
3.027896408447698e-01	-2.019527e-01
3.030000000000000e-01	-2.239962e-01
3.030473041823269e-01	-2.289697e-01
3.031419125469809e-01	-2.368870e-01
3.033311292762889e-01	-2.439187e-01
3.037095627349047e-01	-2.365848e-01
3.040000000000000e-01	-2.176852e-01
3.040522991111680e-01	-2.124707e-01
3.041568973335040e-01	-2.032027e-01
3.043660937781759e-01	-1.896407e-01
3.047844866675198e-01	-1.735275e-01
3.050000000000000e-01	-1.697412e-01
3.050798959461819e-01	-1.674232e-01
3.052396878385457e-01	-1.578749e-01
3.055592716232733e-01	-1.212836e-01
3.060000000000000e-01	-5.006978e-02
3.060463122682506e-01	-4.021238e-02
3.061389368047520e-01	-2.076312e-02
3.063241858777546e-01	1.699900e-02
3.066946840237599e-01	8.971454e-02
3.070000000000000e-01	1.477601e-01
3.070613947525181e-01	1.557223e-01
3.071841842575544e-01	1.645917e-01
3.074297632676271e-01	1.575752e-01
3.077302207908644e-01	1.139229e-01
3.080000000000000e-01	5.013020e-02
3.080229954135344e-01	4.308458e-02
3.080689862406031e-01	2.970282e-02
3.081609678947407e-01	5.793970e-03
3.083071893683851e-01	-2.506877e-02
3.085416087096460e-01	-6.066629e-02
3.087659557464275e-01	-8.080488e-02
3.090000000000000e-01	-9.093273e-02
3.090309105099768e-01	-9.109524e-02
3.090927315299303e-01	-9.167075e-02
3.092163735698374e-01	-9.392375e-02
3.094636576496516e-01	-1.022370e-01
3.099582258092800e-01	-1.256540e-01
3.100000000000000e-01	-1.280758e-01
3.100347952702743e-01	-1.299062e-01
3.101043858108231e-01	-1.325434e-01
3.102435668919205e-01	-1.332683e-01
3.105219290541154e-01	-1.200842e-01
3.110000000000000e-01	-7.621048e-02
3.110556724324390e-01	-6.869540e-02
3.111670172973169e-01	-5.498166e-02
3.113897070270729e-01	-3.254386e-02
3.117222450658990e-01	-7.823421e-03
3.120000000000000e-01	7.013976e-03
3.120172306377336e-01	7.478617e-03
3.120516919132009e-01	8.094523e-03
3.121206144641354e-01	8.083848e-03
3.122227831004836e-01	4.864409e-03
3.124271203731799e-01	-1.023419e-02
3.126595898333472e-01	-3.957041e-02
3.129934619788925e-01	-9.588625e-02
3.130000000000000e-01	-9.717087e-02
3.130392281266450e-01	-1.053339e-01
3.130915322955051e-01	-1.156924e-01
3.131961406332252e-01	-1.347158e-01
3.134053573086653e-01	-1.668899e-01
3.138237906595456e-01	-2.190027e-01
3.140000000000000e-01	-2.368540e-01
3.140670059814000e-01	-2.389496e-01
3.142010179442000e-01	-2.361190e-01
3.144690418698000e-01	-2.045327e-01
3.148566812382225e-01	-1.212429e-01
3.150000000000000e-01	-7.983293e-02
3.150345786471654e-01	-6.940430e-02
3.151037359414962e-01	-5.165305e-02
3.152208524370332e-01	-3.042432e-02
3.153408306052458e-01	-2.038006e-02
3.154942148835719e-01	-2.359053e-02
3.156413051548663e-01	-4.331963e-02
3.158863175946815e-01	-1.010604e-01
3.160000000000000e-01	-1.359137e-01
3.160315695131612e-01	-1.469190e-01
3.160947085394836e-01	-1.674024e-01
3.162209865921283e-01	-2.016004e-01
3.164735426974179e-01	-2.466403e-01
3.169786549079970e-01	-2.959577e-01
3.170000000000000e-01	-2.967133e-01
3.170426901840060e-01	-2.957279e-01
3.171280705520181e-01	-2.922300e-01
3.172988312880423e-01	-2.785011e-01
3.176403527600907e-01	-2.330358e-01
3.180000000000000e-01	-1.695958e-01
3.180683042944097e-01	-1.565111e-01
3.182049128832291e-01	-1.347661e-01
3.184781300608677e-01	-1.071453e-01
3.188452295017080e-01	-9.161749e-02
3.190000000000000e-01	-9.199886e-02
3.191297026337824e-01	-9.726644e-02
3.193026394788257e-01	-1.054934e-01
3.196485131689122e-01	-1.247231e-01
3.200000000000000e-01	-1.465753e-01
3.200691747380173e-01	-1.492321e-01
3.202075242140519e-01	-1.501193e-01
3.204842231661211e-01	-1.355812e-01
3.208863521135480e-01	-9.143780e-02
3.210000000000000e-01	-7.402972e-02
3.210497935388733e-01	-6.563137e-02
3.211493806166199e-01	-5.052851e-02
3.213485547721131e-01	-2.637114e-02
3.215959259810012e-01	-5.605919e-03
3.218528450636789e-01	6.970734e-03
3.220000000000000e-01	1.066062e-02
3.220259675480225e-01	1.099668e-02
3.220779026440674e-01	1.205873e-02
3.221817728361573e-01	1.577121e-02
3.223513826265090e-01	2.626881e-02
3.226906022072124e-01	5.807945e-02
3.230000000000000e-01	9.496374e-02
3.230445220373054e-01	1.006408e-01
3.231335661119161e-01	1.102129e-01
3.233116542611376e-01	1.215877e-01
3.236678305595806e-01	1.243711e-01
3.240000000000000e-01	1.117805e-01
3.240476878246279e-01	1.082404e-01
3.241430634738836e-01	1.023026e-01
3.243338147723951e-01	9.481007e-02
3.246190344776466e-01	9.185478e-02
3.249080619825462e-01	9.627690e-02
3.250000000000000e-01	9.931809e-02
3.250397084483623e-01	1.001856e-01
3.251191253450869e-01	9.989145e-02
3.252779591385361e-01	9.097521e-02
3.255484126250074e-01	5.575147e-02
3.259055401649304e-01	-1.488746e-02
3.260000000000000e-01	-3.823611e-02
3.260360238555915e-01	-4.746120e-02
3.261080715667744e-01	-6.383536e-02
3.262521669891402e-01	-8.840904e-02
3.264724740771520e-01	-1.100910e-01
3.266788215233818e-01	-1.140754e-01
3.269104021982256e-01	-1.033082e-01
3.270000000000000e-01	-9.542932e-02
3.270645117433513e-01	-8.753264e-02
3.271505274011529e-01	-7.635614e-02
3.273225587167562e-01	-5.192079e-02
3.276666213479628e-01	2.240283e-03
3.280000000000000e-01	5.891750e-02
3.280253185700014e-01	6.341080e-02
3.280759557100041e-01	7.204546e-02
3.281772299900095e-01	8.772846e-02
3.283797785500204e-01	1.142120e-01
3.286590043259257e-01	1.422579e-01
3.290000000000000e-01	1.681095e-01
3.290161595290302e-01	1.688530e-01
3.290377055677372e-01	1.695619e-01
3.290807976451511e-01	1.700699e-01
3.291669817999790e-01	1.676699e-01
3.293393501096347e-01	1.507376e-01
3.296840867289462e-01	8.651363e-02
3.300000000000000e-01	4.901315e-03
3.300186848979884e-01	-1.123459e-03
3.300560546939652e-01	-1.264242e-02
3.301307942859188e-01	-3.345206e-02
3.302623009335046e-01	-6.306770e-02
3.305253142286763e-01	-1.029341e-01
3.308477662493240e-01	-1.286439e-01
3.310000000000000e-01	-1.324293e-01
3.310356074186195e-01	-1.317277e-01
3.311068222558586e-01	-1.300922e-01
3.312492519303367e-01	-1.258130e-01
3.315074577186494e-01	-1.150368e-01
3.320000000000000e-01	-8.961314e-02
3.320516411576626e-01	-8.621781e-02
3.321549234729876e-01	-7.921427e-02
3.323614881036379e-01	-6.428597e-02
3.327746173649382e-01	-3.236265e-02
3.330000000000000e-01	-1.404812e-02
3.330826258522601e-01	-7.360271e-03
3.332478775567803e-01	5.357153e-03
3.335783809658205e-01	2.851599e-02
3.340000000000000e-01	5.557076e-02
3.340612286753359e-01	5.819409e-02
3.341836860260077e-01	6.153212e-02
3.344286007273514e-01	6.169341e-02
3.347042223127651e-01	5.323844e-02
3.349835201394752e-01	3.770624e-02
3.350000000000000e-01	3.653606e-02
3.350272063892301e-01	3.466386e-02
3.350816191676904e-01	3.159065e-02
3.351904447246108e-01	2.822562e-02
3.353733522931371e-01	2.935606e-02
3.356084131037362e-01	4.125303e-02
3.358691508826345e-01	6.502653e-02
3.360000000000000e-01	8.064050e-02
3.360324937338302e-01	8.440234e-02
3.360974812014904e-01	9.004775e-02
3.362274561368109e-01	9.352264e-02
3.364503299306036e-01	7.987702e-02
3.367545119256395e-01	3.188756e-02
3.370000000000000e-01	-2.506392e-02
3.370314171371156e-01	-3.437161e-02
3.370942514113467e-01	-5.272447e-02
3.372199199598089e-01	-8.829759e-02
3.374712570567333e-01	-1.556202e-01
3.379523085696874e-01	-2.779232e-01
3.380000000000000e-01	-2.895478e-01
3.380307188501051e-01	-2.960272e-01
3.380921565503153e-01	-3.071634e-01
3.382150319507358e-01	-3.212569e-01
3.384607827515766e-01	-3.220445e-01
3.389093206940952e-01	-2.767191e-01
3.390000000000000e-01	-2.602400e-01
3.391400049984039e-01	-2.273581e-01
3.393266783296091e-01	-1.854217e-01
3.397000249920195e-01	-1.055825e-01
3.400000000000000e-01	-4.405910e-02
3.400406198472702e-01	-3.649906e-02
3.401218595418105e-01	-2.231362e-02
3.402843389308912e-01	2.619339e-03
3.404945627221208e-01	2.796722e-02
3.409150103045800e-01	6.607405e-02
3.410000000000000e-01	7.193130e-02
3.410447996326812e-01	7.370905e-02
3.411343988980435e-01	7.602865e-02
3.413135974287682e-01	7.533308e-02
3.416608852457034e-01	6.058059e-02
3.420000000000000e-01	3.550173e-02
3.420481644340890e-01	3.078482e-02
3.421444933022669e-01	2.227364e-02
3.423371510386226e-01	8.575682e-03
3.425813623896304e-01	-3.537267e-03
3.428417125902864e-01	-1.111811e-02
3.430000000000000e-01	-1.348709e-02
3.430263079869129e-01	-1.356460e-02
3.430789239607387e-01	-1.366603e-02
3.431841559083903e-01	-1.361712e-02
3.433946198036935e-01	-1.261986e-02
3.438155475942998e-01	-8.740941e-03
3.440000000000000e-01	-6.385377e-03
3.440041062165891e-01	-6.318535e-03
3.440123186497673e-01	-6.207833e-03
3.440287435161236e-01	-6.072462e-03
3.440615932488361e-01	-6.107698e-03
3.441272927142612e-01	-7.338428e-03
3.442586916451115e-01	-1.349878e-02
3.444499063425562e-01	-3.023583e-02
3.447451863085629e-01	-6.958491e-02
3.450000000000000e-01	-1.124474e-01
3.450407525591562e-01	-1.199860e-01
3.451222576774684e-01	-1.335016e-01
3.452852679140929e-01	-1.536749e-01
3.456112883873419e-01	-1.749146e-01
3.460000000000000e-01	-1.814151e-01
3.460478650466633e-01	-1.793460e-01
3.461435951399899e-01	-1.745342e-01
3.463350553266430e-01	-1.619708e-01
3.467179756999493e-01	-1.297650e-01
3.470000000000000e-01	-1.018398e-01
3.470765840746613e-01	-9.486821e-02
3.472297522239838e-01	-8.446026e-02
3.475360885226288e-01	-7.572006e-02
3.479032686095601e-01	-7.892022e-02
3.480000000000000e-01	-8.243883e-02
3.480482180523122e-01	-8.512686e-02
3.481446541569365e-01	-9.063125e-02
3.483375263661850e-01	-1.022097e-01
3.487232707846822e-01	-1.267339e-01
3.490000000000000e-01	-1.451173e-01
3.490771488836995e-01	-1.484152e-01
3.492314466510983e-01	-1.508259e-01
3.495400421858960e-01	-1.402734e-01
3.500000000000000e-01	-1.047619e-01
3.500470935574222e-01	-1.005991e-01
3.501412806722665e-01	-9.631144e-02
3.503296549019551e-01	-1.018290e-01
3.505458740354742e-01	-1.322240e-01
3.509783123025123e-01	-2.334849e-01
3.510000000000000e-01	-2.399692e-01
3.510098850454907e-01	-2.432707e-01
3.510296551364722e-01	-2.494925e-01
3.510691953184351e-01	-2.602959e-01
3.511482756823610e-01	-2.757186e-01
3.513064364102126e-01	-2.844066e-01
3.516227578659158e-01	-2.413433e-01
3.520000000000000e-01	-1.302446e-01
3.520418484194566e-01	-1.116151e-01
3.521255452583699e-01	-7.669760e-02
3.522929389361965e-01	-1.544788e-02
3.525114211936614e-01	4.760655e-02
3.529168692155326e-01	1.362737e-01
3.530000000000000e-01	1.502752e-01
3.530424325905694e-01	1.548826e-01
3.531272977717083e-01	1.620335e-01
3.532970281339860e-01	1.672495e-01
3.536364888585414e-01	1.532555e-01
3.540000000000000e-01	1.167856e-01
3.540519410227908e-01	1.095415e-01
3.541558230683723e-01	9.778510e-02
3.543635871595354e-01	8.460966e-02
3.546673578808366e-01	8.303732e-02
3.549066301556619e-01	9.400485e-02
3.550000000000000e-01	1.014945e-01
3.550241903128303e-01	1.036173e-01
3.550725709384910e-01	1.070680e-01
3.551693321898124e-01	1.103980e-01
3.553628546924553e-01	1.058773e-01
3.556399352316710e-01	7.925593e-02
3.559628916691003e-01	2.847821e-02
3.560000000000000e-01	2.109242e-02
3.560366250451129e-01	1.313290e-02
3.561098751353388e-01	-2.265681e-03
3.562563753157905e-01	-3.087658e-02
3.565216134421426e-01	-7.680558e-02
3.569071196718152e-01	-1.357190e-01
3.570000000000000e-01	-1.485046e-01
3.570260939276788e-01	-1.519091e-01
3.570782817830363e-01	-1.589408e-01
3.571826574937514e-01	-1.739997e-01
3.573914089151816e-01	-2.076415e-01
3.578089117580420e-01	-2.823670e-01
3.580000000000000e-01	-3.192758e-01
3.580835005685721e-01	-3.318069e-01
3.582505017057163e-01	-3.474788e-01
3.585845039800046e-01	-3.466432e-01
3.590000000000000e-01	-3.113292e-01
3.591595636008588e-01	-2.841697e-01
3.593723150686706e-01	-2.500626e-01
3.597978180042942e-01	-1.857985e-01
3.600000000000000e-01	-1.567530e-01
3.600851005871247e-01	-1.465608e-01
3.602553017613741e-01	-1.291779e-01
3.605957041098730e-01	-1.045307e-01
3.610000000000000e-01	-8.552775e-02
3.610567923557489e-01	-8.344021e-02
3.611703770672469e-01	-7.712395e-02
3.613975464902426e-01	-5.647890e-02
3.617255376528825e-01	-1.310432e-02
3.620000000000000e-01	3.215489e-02
3.620409254105815e-01	3.987510e-02
3.621227762317446e-01	5.471646e-02
3.622864778740708e-01	8.177733e-02
3.626138811587230e-01	1.286266e-01
3.630000000000000e-01	1.767950e-01
3.630654806569305e-01	1.806574e-01
3.631964419707914e-01	1.821200e-01
3.634583645985132e-01	1.637903e-01
3.637527598811846e-01	1.163962e-01
3.640000000000000e-01	5.921507e-02
3.640099900040472e-01	5.630157e-02
3.640233100094434e-01	5.249542e-02
3.640499500202358e-01	4.508035e-02
3.641032300418208e-01	3.099234e-02
3.642097900849906e-01	4.905530e-03
3.643164079508112e-01	-1.874633e-02
3.644132688749279e-01	-3.771976e-02
3.645459932834320e-01	-6.015117e-02
3.647161615678589e-01	-8.368611e-02
3.649757826248655e-01	-1.130300e-01
3.650000000000000e-01	-1.153314e-01
3.650988683738254e-01	-1.222873e-01
3.652306928722592e-01	-1.287814e-01
3.654943418691268e-01	-1.335703e-01
3.660000000000000e-01	-1.293751e-01
3.660527297993735e-01	-1.260377e-01
3.661581893981206e-01	-1.168924e-01
3.663691085956146e-01	-8.879051e-02
3.667166370114845e-01	-2.318739e-02
3.670000000000000e-01	4.285253e-02
3.670427175955845e-01	5.338722e-02
3.671281527867535e-01	7.173331e-02
3.672990231690916e-01	9.791211e-02
3.675526376958440e-01	1.162908e-01
3.678395190846544e-01	1.146546e-01
3.680000000000000e-01	1.047262e-01
3.680333674578321e-01	1.010810e-01
3.681001023734961e-01	9.351772e-02
3.682335722048243e-01	7.740993e-02
3.683811951679175e-01	5.790681e-02
3.686764410941040e-01	1.477381e-02
3.690000000000000e-01	-3.594918e-02
3.690317995847419e-01	-4.117814e-02
3.690741990310645e-01	-4.779520e-02
3.691589979237097e-01	-5.986646e-02
3.693285957090001e-01	-8.047751e-02
3.695576482709748e-01	-1.020062e-01
3.698658570480740e-01	-1.229102e-01
3.700000000000000e-01	-1.295047e-01
3.701262695712820e-01	-1.333195e-01
3.702946289996581e-01	-1.372214e-01
3.706313478564102e-01	-1.422293e-01
3.710000000000000e-01	-1.451948e-01
3.710673437713504e-01	-1.453778e-01
3.712020313140513e-01	-1.460317e-01
3.714714063994529e-01	-1.485288e-01
3.720000000000000e-01	-1.554706e-01
3.721616250512410e-01	-1.584745e-01
3.723771251195623e-01	-1.626766e-01
3.728081252562050e-01	-1.714485e-01
3.730000000000000e-01	-1.754833e-01
3.730862000273285e-01	-1.780866e-01
3.732586000819856e-01	-1.847870e-01
3.736034001912997e-01	-2.031674e-01
3.740000000000000e-01	-2.291968e-01
3.740689600218629e-01	-2.335946e-01
3.742068800655885e-01	-2.401980e-01
3.744827201530398e-01	-2.445215e-01
3.750000000000000e-01	-2.380826e-01
3.750551680174903e-01	-2.360983e-01
3.751655040524708e-01	-2.334920e-01
3.753861761224319e-01	-2.340922e-01
3.758275202623539e-01	-2.475332e-01
3.760000000000000e-01	-2.565615e-01
3.762628339267465e-01	-2.754545e-01
3.766132791624086e-01	-3.011161e-01
3.770000000000000e-01	-3.298045e-01
3.770700890471324e-01	-3.329933e-01
3.772102671413972e-01	-3.350403e-01
3.774906233299269e-01	-3.218245e-01
3.780000000000000e-01	-2.703925e-01
3.780560712377060e-01	-2.582531e-01
3.781682137131178e-01	-2.280780e-01
3.783924986639415e-01	-1.451882e-01
3.787324226008598e-01	2.025198e-02
3.790000000000000e-01	1.752508e-01
3.790441012599658e-01	2.033348e-01
3.791323037798976e-01	2.567728e-01
3.793087088197610e-01	3.517533e-01
3.796615188994879e-01	5.108856e-01
3.800000000000000e-01	6.393981e-01
3.800601802726638e-01	6.599483e-01
3.801805408179914e-01	7.056630e-01
3.804212619086464e-01	8.161349e-01
3.808754209953622e-01	1.060304e+00
3.810000000000000e-01	1.134912e+00
3.810811483439303e-01	1.183402e+00
3.812434450317908e-01	1.272322e+00
3.815680384075117e-01	1.421838e+00
3.820000000000000e-01	1.588442e+00
3.820649186751442e-01	1.604592e+00
3.821947560254326e-01	1.629805e+00
3.824544307260093e-01	1.650484e+00
3.829737801271628e-01	1.638295e+00
3.830000000000000e-01	1.635606e+00
3.830524397456744e-01	1.626386e+00
3.831573192370231e-01	1.605831e+00
3.833670782197206e-01	1.555545e+00
3.837865961851156e-01	1.434664e+00
3.840000000000000e-01	1.364957e+00
3.840839035930790e-01	1.334966e+00
3.842517107792370e-01	1.275572e+00
3.845873251515530e-01	1.158778e+00
3.850000000000000e-01	1.017261e+00
3.850671228744632e-01	9.901395e-01
3.852013686233896e-01	9.265262e-01
3.854698601212424e-01	7.603915e-01
3.860000000000000e-01	3.650911e-01
3.860536982995706e-01	3.194885e-01
3.861610948987117e-01	2.348430e-01
3.863758880969939e-01	9.025545e-02
3.866880829766857e-01	-7.565618e-02
3.870000000000000e-01	-2.061532e-01
3.870421564629887e-01	-2.190534e-01
3.871264693889660e-01	-2.446894e-01
3.872950952409207e-01	-2.951944e-01
3.876323469448301e-01	-3.941060e-01
3.880000000000000e-01	-5.000536e-01
3.880674503407819e-01	-5.173618e-01
3.882023510223456e-01	-5.483059e-01
3.884721523854732e-01	-5.950087e-01
3.890000000000000e-01	-6.603766e-01
3.890539602726255e-01	-6.639153e-01
3.891618808178765e-01	-6.714299e-01
3.893777219083785e-01	-6.883228e-01
3.898094040893826e-01	-7.261076e-01
3.900000000000000e-01	-7.441902e-01
3.900863364362008e-01	-7.488982e-01
3.902590093086025e-01	-7.501906e-01
3.906043550534057e-01	-7.257352e-01
3.910000000000000e-01	-6.712865e-01
3.910690691489607e-01	-6.574742e-01
3.912072074468820e-01	-6.313171e-01
3.914834840427245e-01	-5.849172e-01
3.920000000000000e-01	-5.078155e-01
3.921657659575056e-01	-4.878827e-01
3.923867872341796e-01	-4.632900e-01
3.928288297875278e-01	-4.177214e-01
3.930000000000000e-01	-4.011811e-01
3.930884085106696e-01	-3.915851e-01
3.932652255320089e-01	-3.693117e-01
3.936188595746874e-01	-3.147221e-01
3.940000000000000e-01	-2.466749e-01
3.940707268085357e-01	-2.334165e-01
3.942121804256071e-01	-2.093786e-01
3.944950876597499e-01	-1.711235e-01
3.950000000000000e-01	-1.181135e-01
3.950565814468286e-01	-1.150656e-01
3.951697443404857e-01	-1.106622e-01
3.953960701278000e-01	-1.089668e-01
3.958313342982281e-01	-1.200245e-01
3.960000000000000e-01	-1.286708e-01
3.960556875428989e-01	-1.322368e-01
3.961670626286967e-01	-1.383235e-01
3.963898128002922e-01	-1.460442e-01
3.968353131434832e-01	-1.521933e-01
3.970000000000000e-01	-1.517591e-01
3.970789843144718e-01	-1.511806e-01
3.972369529434153e-01	-1.514772e-01
3.975528902013022e-01	-1.572972e-01
3.980000000000000e-01	-1.719021e-01
3.980631874515774e-01	-1.740867e-01
3.981895623547322e-01	-1.765239e-01
3.984423121610418e-01	-1.732775e-01
3.989478117736610e-01	-1.517758e-01
3.990000000000000e-01	-1.483579e-01
3.990672731603770e-01	-1.444817e-01
3.992018194811310e-01	-1.401201e-01
3.994709121226390e-01	-1.442936e-01
3.998945565932928e-01	-1.704732e-01
4.000000000000000e-01	-1.807101e-01
4.000426760097855e-01	-1.844225e-01
4.001280280293566e-01	-1.884734e-01
4.002987320684988e-01	-1.825772e-01
4.006001692615142e-01	-1.373309e-01
4.010000000000000e-01	-3.924045e-02
4.010295248276457e-01	-2.952949e-02
4.010885744829371e-01	-1.165884e-02
4.012066737935198e-01	1.866555e-02
4.013374070685057e-01	4.287706e-02
4.015988736184776e-01	6.725531e-02
4.019211386649626e-01	7.211465e-02
4.020000000000000e-01	6.864242e-02
4.020341720266945e-01	6.592709e-02
4.021025160800835e-01	6.082055e-02
4.022392041868614e-01	5.202057e-02
4.025125804004172e-01	3.902230e-02
4.030000000000000e-01	2.279530e-02
4.030546752427112e-01	2.217879e-02
4.031640257281335e-01	2.146729e-02
4.033827266989781e-01	2.213088e-02
4.037524600151172e-01	2.728289e-02
4.040000000000000e-01	3.286894e-02
4.040546941834934e-01	3.378438e-02
4.041640825504801e-01	3.400553e-02
4.043828592844536e-01	2.879458e-02
4.046450686466940e-01	1.375186e-02
4.050000000000000e-01	-1.614209e-02
4.050406181158115e-01	-1.994661e-02
4.051218543474344e-01	-2.593564e-02
4.052823889086508e-01	-3.235302e-02
4.054480043933038e-01	-3.138910e-02
4.056995462368330e-01	-1.684135e-02
4.059768752892847e-01	1.000699e-02
4.060000000000000e-01	1.287442e-02
4.060340844365037e-01	1.742725e-02
4.061022533095112e-01	2.608216e-02
4.062385910555260e-01	4.140265e-02
4.065112665475556e-01	6.619637e-02
4.068720644143502e-01	9.160107e-02
4.070000000000000e-01	9.861785e-02
4.070424681358183e-01	1.000166e-01
4.071274044074550e-01	1.018184e-01
4.072972769507283e-01	1.010445e-01
4.076370220372748e-01	8.774108e-02
4.080000000000000e-01	6.321302e-02
4.080383227779483e-01	6.009622e-02
4.081149683338450e-01	5.531048e-02
4.082682594456383e-01	5.138079e-02
4.084976205451943e-01	5.836247e-02
4.088942085349320e-01	9.115824e-02
4.090000000000000e-01	1.039791e-01
4.090390875052773e-01	1.094813e-01
4.091172625158320e-01	1.196163e-01
4.092736125369412e-01	1.360707e-01
4.095863125791597e-01	1.579465e-01
4.100000000000000e-01	1.747538e-01
4.100623855202798e-01	1.751397e-01
4.101871565608394e-01	1.757659e-01
4.104366986419585e-01	1.763953e-01
4.109357828041968e-01	1.764843e-01
4.110000000000000e-01	1.763792e-01
4.110472806867824e-01	1.770200e-01
4.111418420603472e-01	1.800117e-01
4.113309648074766e-01	1.934225e-01
4.117092103017356e-01	2.383111e-01
4.120000000000000e-01	2.840460e-01
4.120708060826231e-01	2.943813e-01
4.122124182478691e-01	3.078127e-01
4.124956425783612e-01	3.066199e-01
4.129720427768730e-01	2.624561e-01
4.130000000000000e-01	2.579958e-01
4.130399025724544e-01	2.502870e-01
4.131197077173631e-01	2.357002e-01
4.132793180071804e-01	2.101568e-01
4.135985385868152e-01	1.693665e-01
4.140000000000000e-01	1.288004e-01
4.140638441159270e-01	1.251040e-01
4.141915323477809e-01	1.194841e-01
4.144469088114887e-01	1.157002e-01
4.149576617389043e-01	1.217777e-01
4.150000000000000e-01	1.231546e-01
4.150601856402942e-01	1.245961e-01
4.151805569208826e-01	1.245480e-01
4.154212994820593e-01	1.129881e-01
4.158170070737269e-01	7.409838e-02
4.160000000000000e-01	4.895281e-02
4.160496729283111e-01	4.162411e-02
4.161490187849333e-01	2.932785e-02
4.163423030470516e-01	1.279773e-02
4.165177108588247e-01	5.608120e-03
4.166926126687222e-01	6.317998e-03
4.168814436667651e-01	1.379805e-02
4.170000000000000e-01	2.130930e-02
4.170270659888369e-01	2.379717e-02
4.170811979665106e-01	2.934051e-02
4.171894619218581e-01	4.300562e-02
4.174059898325531e-01	7.945509e-02
4.178390456539431e-01	1.709357e-01
4.180000000000000e-01	2.103959e-01
4.180593012806482e-01	2.241536e-01
4.181779038419446e-01	2.464228e-01
4.184151089645374e-01	2.696314e-01
4.188437671420062e-01	2.719262e-01
4.190000000000000e-01	2.614905e-01
4.191597003468504e-01	2.407899e-01
4.193726341426509e-01	2.116544e-01
4.197985017342520e-01	1.504675e-01
4.200000000000000e-01	1.204227e-01
4.200741926076135e-01	1.110775e-01
4.202225778228404e-01	9.665873e-02
4.205193482532944e-01	8.253539e-02
4.208806466979255e-01	8.270077e-02
4.210000000000000e-01	8.704630e-02
4.210459600909900e-01	8.972543e-02
4.211378802729701e-01	9.478410e-02
4.213217206369302e-01	1.036138e-01
4.216894013648505e-01	1.180664e-01
4.220000000000000e-01	1.280763e-01
4.220735361455840e-01	1.301049e-01
4.222206084367521e-01	1.345391e-01
4.225147530190884e-01	1.448502e-01
4.230000000000000e-01	1.639244e-01
4.230588289164672e-01	1.670256e-01
4.231764867494017e-01	1.742670e-01
4.234118024152707e-01	1.931603e-01
4.238824337470087e-01	2.396863e-01
4.240000000000000e-01	2.530147e-01
4.240941262663476e-01	2.663895e-01
4.242823787990427e-01	2.964031e-01
4.246588838644331e-01	3.665037e-01
4.250000000000000e-01	4.377324e-01
4.250753010130781e-01	4.526413e-01
4.252259030392342e-01	4.772119e-01
4.255271070915465e-01	5.066674e-01
4.260000000000000e-01	5.261648e-01
4.260602408104625e-01	5.257591e-01
4.261807224313874e-01	5.273897e-01
4.264216856732372e-01	5.409616e-01
4.269036121569368e-01	5.880640e-01
4.270000000000000e-01	6.005932e-01
4.270858108153647e-01	6.109169e-01
4.272574324460942e-01	6.256646e-01
4.276006757075531e-01	6.354281e-01
4.280000000000000e-01	6.271901e-01
4.280686486522918e-01	6.232219e-01
4.282059459568753e-01	6.176249e-01
4.284805405660425e-01	6.159337e-01
4.290000000000000e-01	6.284336e-01
4.290549189218334e-01	6.302276e-01
4.291647567655003e-01	6.303780e-01
4.293844324528340e-01	6.159888e-01
4.298237838275014e-01	5.561373e-01
4.300000000000000e-01	5.222892e-01
4.300878702749334e-01	5.048401e-01
4.302636108248004e-01	4.771499e-01
4.306150919245343e-01	4.453762e-01
4.310000000000000e-01	4.325934e-01
4.310702962199468e-01	4.331912e-01
4.312108886598404e-01	4.315214e-01
4.314920735396275e-01	4.167806e-01
4.320000000000000e-01	3.722097e-01
4.321687109278723e-01	3.505211e-01
4.323936588317020e-01	3.225390e-01
4.328435546393614e-01	2.682397e-01
4.330000000000000e-01	2.498137e-01
4.330899791615319e-01	2.432973e-01
4.332699374845956e-01	2.380151e-01
4.336298541307232e-01	2.523291e-01
4.340000000000000e-01	2.887853e-01
4.340538339220764e-01	2.945454e-01
4.341615017662290e-01	2.998710e-01
4.343768374545344e-01	2.856043e-01
4.347466962115973e-01	2.118410e-01
4.350000000000000e-01	1.345433e-01
4.350492029185298e-01	1.163440e-01
4.351476087555895e-01	8.343519e-02
4.353444204297088e-01	2.994070e-02
4.355808963782375e-01	-1.569924e-02
4.358530635986210e-01	-4.806330e-02
4.360000000000000e-01	-5.808736e-02
4.360286689422594e-01	-5.874555e-02
4.360860068267782e-01	-5.969736e-02
4.362006825958157e-01	-5.992514e-02
4.364300341338909e-01	-5.472562e-02
4.368425147477522e-01	-3.512187e-02
4.370000000000000e-01	-2.457103e-02
4.370436993630049e-01	-2.084508e-02
4.371310980890148e-01	-1.316655e-02
4.373058955410346e-01	3.190718e-03
4.376554904450741e-01	3.852508e-02
4.380000000000000e-01	7.545645e-02
4.380699189808079e-01	8.311611e-02
4.382097569424237e-01	9.784248e-02
4.384894328656553e-01	1.249224e-01
4.390000000000000e-01	1.705813e-01
4.390559351846463e-01	1.745192e-01
4.391678055539390e-01	1.812104e-01
4.393915462925242e-01	1.895331e-01
4.398390277696948e-01	1.956571e-01
4.400000000000000e-01	1.948795e-01
4.400866389427315e-01	1.914600e-01
4.402599168281945e-01	1.812500e-01
4.406064725991206e-01	1.496385e-01
4.410000000000000e-01	1.029019e-01
4.410678115064569e-01	9.475566e-02
4.412034345193707e-01	8.249569e-02
4.414746805451983e-01	7.173932e-02
4.417883588336348e-01	7.640497e-02
4.420000000000000e-01	8.838722e-02
4.420446686177251e-01	9.084477e-02
4.421340058531754e-01	9.225732e-02
4.423126803240759e-01	8.233622e-02
4.425413803723320e-01	4.605722e-02
4.429295869747393e-01	-5.093042e-02
4.430000000000000e-01	-7.304712e-02
4.430252899115452e-01	-8.160655e-02
4.430758697346356e-01	-9.736472e-02
4.431770293808163e-01	-1.227740e-01
4.433793486731778e-01	-1.528247e-01
4.437420966484558e-01	-1.642445e-01
4.440000000000000e-01	-1.482074e-01
4.440387744403964e-01	-1.425801e-01
4.441163233211892e-01	-1.318103e-01
4.442714210827748e-01	-1.123600e-01
4.445816166059461e-01	-7.912114e-02
4.449170920977291e-01	-4.867919e-02
4.450000000000000e-01	-4.215862e-02
4.450165799877329e-01	-4.108407e-02
4.450497399631986e-01	-3.921140e-02
4.451160599141300e-01	-3.672801e-02
4.452486998159928e-01	-3.527015e-02
4.453740588160131e-01	-3.797741e-02
4.455260424276629e-01	-4.696517e-02
4.457229458248230e-01	-6.639254e-02
4.459861373906311e-01	-1.004312e-01
4.460000000000000e-01	-1.025193e-01
4.460081047032280e-01	-1.038138e-01
4.460567329225959e-01	-1.104918e-01
4.461215705484198e-01	-1.165784e-01
4.462512458000677e-01	-1.200147e-01
4.465105963033634e-01	-1.027314e-01
4.468098506530302e-01	-5.404208e-02
4.470000000000000e-01	-9.079749e-03
4.470095953092177e-01	-6.280464e-03
4.470287859276531e-01	-8.673723e-04
4.470671671645239e-01	9.187961e-03
4.471439296382655e-01	2.641655e-02
4.472974545857488e-01	5.051713e-02
4.476045044807154e-01	7.234674e-02
4.478899736377934e-01	6.992237e-02
4.480000000000000e-01	6.252346e-02
4.480296118988337e-01	5.964661e-02
4.480888356965010e-01	5.447269e-02
4.482072832918356e-01	4.646862e-02
4.484028916356900e-01	3.822319e-02
4.485782801462073e-01	3.571065e-02
4.487564699711535e-01	3.794217e-02
4.489346367212118e-01	4.366697e-02
4.490000000000000e-01	4.659475e-02
4.490843955671887e-01	5.048864e-02
4.491969229901069e-01	5.421706e-02
4.494219778359433e-01	5.726229e-02
4.498603797278294e-01	5.466672e-02
4.500000000000000e-01	5.170670e-02
4.500442728695874e-01	4.933379e-02
4.501328186087621e-01	4.262897e-02
4.503099100871115e-01	2.222879e-02
4.505231175405481e-01	-1.429932e-02
4.508767557642180e-01	-9.344923e-02
4.510000000000000e-01	-1.256046e-01
4.510194786769748e-01	-1.311085e-01
4.510584360309243e-01	-1.417080e-01
4.511363507388234e-01	-1.611122e-01
4.512861287802120e-01	-1.925331e-01
4.515458125981129e-01	-2.328620e-01
4.518931415470389e-01	-2.692505e-01
4.520000000000000e-01	-2.764487e-01
4.520485773083990e-01	-2.790405e-01
4.521457319251969e-01	-2.855749e-01
4.523400411587928e-01	-3.044795e-01
4.527286596259847e-01	-3.561268e-01
4.530000000000000e-01	-3.999643e-01
4.530777236934384e-01	-4.103008e-01
4.532331710803151e-01	-4.220480e-01
4.535440658540686e-01	-4.129716e-01
4.540000000000000e-01	-3.584566e-01
4.540546241480456e-01	-3.467086e-01
4.541638724441367e-01	-3.243467e-01
4.543823690363189e-01	-2.844397e-01
4.548193622206833e-01	-2.148529e-01
4.550000000000000e-01	-1.894303e-01
4.550873986368729e-01	-1.762499e-01
4.552621959106187e-01	-1.453455e-01
4.556117904581102e-01	-6.858052e-02
4.560000000000000e-01	3.081426e-02
4.560510790741714e-01	4.531861e-02
4.561532372225143e-01	7.307146e-02
4.563575535192000e-01	1.231784e-01
4.567661861125714e-01	2.111728e-01
4.570000000000000e-01	2.559375e-01
4.570817265186743e-01	2.653173e-01
4.572451795560228e-01	2.749556e-01
4.575720856307199e-01	2.636707e-01
4.579475395607029e-01	2.191118e-01
4.580000000000000e-01	2.096599e-01
4.580104769530230e-01	2.074472e-01
4.580314308590690e-01	2.032202e-01
4.580733386711610e-01	1.956172e-01
4.581571542953450e-01	1.836089e-01
4.583247855437130e-01	1.707224e-01
4.586427329981712e-01	1.734326e-01
4.589687800899458e-01	1.998179e-01
4.590000000000000e-01	2.039635e-01
4.590678045472364e-01	2.135783e-01
4.591582106102182e-01	2.233524e-01
4.593390227361819e-01	2.333740e-01
4.597006469881093e-01	2.303253e-01
4.600000000000000e-01	2.122651e-01
4.600593973615336e-01	2.072735e-01
4.601781920846008e-01	2.008929e-01
4.604157815307350e-01	2.029089e-01
4.608561047361006e-01	2.344557e-01
4.610000000000000e-01	2.518526e-01
4.610398092623016e-01	2.564477e-01
4.611194277869047e-01	2.616379e-01
4.612786648361111e-01	2.546304e-01
4.615880591508451e-01	1.923137e-01
4.620000000000000e-01	5.553097e-02
4.620454626305678e-01	3.616932e-02
4.621363878917033e-01	1.688470e-03
4.622537480441772e-01	-3.367838e-02
4.623820788941583e-01	-5.784667e-02
4.626387405941206e-01	-7.317968e-02
4.628990108639520e-01	-5.956481e-02
4.630000000000000e-01	-4.573097e-02
4.630308906051313e-01	-4.002082e-02
4.630926718153937e-01	-2.929821e-02
4.632039500332455e-01	-1.236263e-02
4.633643871831079e-01	6.462978e-03
4.636852614828326e-01	3.052885e-02
4.640000000000000e-01	4.361842e-02
4.640326243813914e-01	4.369565e-02
4.640978731441741e-01	4.357652e-02
4.642283706697395e-01	4.209476e-02
4.644893657208705e-01	3.487536e-02
4.650000000000000e-01	1.365684e-02
4.650379061968344e-01	1.109511e-02
4.651137185905033e-01	5.249388e-03
4.652653433778409e-01	-8.950579e-03
4.654308408513991e-01	-2.860578e-02
4.657618357985154e-01	-7.694669e-02
4.660000000000000e-01	-1.165318e-01
4.660509455420123e-01	-1.243059e-01
4.661528366260370e-01	-1.361443e-01
4.663566187940862e-01	-1.467420e-01
4.666003893311034e-01	-1.400760e-01
4.668665585776638e-01	-1.133330e-01
4.670000000000000e-01	-9.333590e-02
4.670252088370279e-01	-8.902060e-02
4.670756265110835e-01	-8.137079e-02
4.671764618591948e-01	-7.046928e-02
4.673781325554173e-01	-6.226657e-02
4.676602896065651e-01	-7.389154e-02
4.679572896916778e-01	-1.065508e-01
4.680000000000000e-01	-1.132246e-01
4.680304222048068e-01	-1.183573e-01
4.680912666144202e-01	-1.276096e-01
4.682129554336472e-01	-1.415959e-01
4.684563330721010e-01	-1.540125e-01
4.689328390302189e-01	-1.504439e-01
4.690000000000000e-01	-1.468924e-01
4.690454053471034e-01	-1.434499e-01
4.691362160413102e-01	-1.375701e-01
4.693178374297239e-01	-1.301676e-01
4.696810802065512e-01	-1.263505e-01
4.700000000000000e-01	-1.308441e-01
4.700647410340313e-01	-1.330567e-01
4.701942231020938e-01	-1.368113e-01
4.704531872382188e-01	-1.415170e-01
4.709711155104687e-01	-1.458724e-01
4.710000000000000e-01	-1.458980e-01
4.710577689790627e-01	-1.458113e-01
4.711733069371879e-01	-1.459757e-01
4.714043828534384e-01	-1.477383e-01
4.718665346859394e-01	-1.541531e-01
4.720000000000000e-01	-1.566596e-01
4.720460336285646e-01	-1.586607e-01
4.721381008856937e-01	-1.647667e-01
4.723222353999520e-01	-1.861429e-01
4.726905044284685e-01	-2.517443e-01
4.730000000000000e-01	-3.224577e-01
4.730630545202402e-01	-3.376766e-01
4.731891635607206e-01	-3.630940e-01
4.734413816416814e-01	-3.928243e-01
4.739458178036030e-01	-4.132006e-01
4.740000000000000e-01	-4.121425e-01
4.740640950685480e-01	-4.089271e-01
4.741922852056438e-01	-4.040989e-01
4.744486654798355e-01	-4.011452e-01
4.749614260282188e-01	-4.074448e-01
4.750000000000000e-01	-4.086275e-01
4.750300573146479e-01	-4.093117e-01
4.750901719439438e-01	-4.092270e-01
4.752104012025354e-01	-4.025429e-01
4.754508597197187e-01	-3.664970e-01
4.759317767540852e-01	-2.527837e-01
4.760000000000000e-01	-2.320602e-01
4.760304301047527e-01	-2.219608e-01
4.760912903142579e-01	-2.032727e-01
4.762130107332684e-01	-1.726346e-01
4.764564515712895e-01	-1.314948e-01
4.767816636414713e-01	-1.052337e-01
4.770000000000000e-01	-1.025926e-01
4.770406687025454e-01	-1.042146e-01
4.771220061076362e-01	-1.068350e-01
4.772846809178178e-01	-1.093710e-01
4.776100305381811e-01	-1.069120e-01
4.780000000000000e-01	-9.650317e-02
4.780650699240727e-01	-9.484340e-02
4.781952097722180e-01	-9.457771e-02
4.784554894685085e-01	-1.051785e-01
4.788164364402491e-01	-1.360557e-01
4.790000000000000e-01	-1.580838e-01
4.790572194788100e-01	-1.659799e-01
4.791716584364301e-01	-1.806012e-01
4.794005363516701e-01	-2.048739e-01
4.798582921821502e-01	-2.433120e-01
4.800000000000000e-01	-2.527556e-01
4.800773999585123e-01	-2.544358e-01
4.802321998755369e-01	-2.528835e-01
4.805417997095861e-01	-2.317754e-01
4.810000000000000e-01	-1.775379e-01
4.810564370491708e-01	-1.680621e-01
4.811693111475125e-01	-1.501995e-01
4.813950593441960e-01	-1.190990e-01
4.818465557375630e-01	-6.642389e-02
4.820000000000000e-01	-5.106837e-02
4.820339868344573e-01	-4.840858e-02
4.821019605033720e-01	-4.372701e-02
4.822379078412012e-01	-3.707660e-02
4.824816142472215e-01	-3.223463e-02
4.828069514903184e-01	-3.548748e-02
4.830000000000000e-01	-4.180251e-02
4.830339376575900e-01	-4.393944e-02
4.831018129727699e-01	-4.909846e-02
4.832375636031298e-01	-6.324121e-02
4.834893252210613e-01	-1.014784e-01
4.840000000000000e-01	-2.001039e-01
4.840429092584541e-01	-2.101045e-01
4.841001216030595e-01	-2.222045e-01
4.842145462922703e-01	-2.424012e-01
4.844433956706921e-01	-2.690807e-01
4.849010944275355e-01	-2.963260e-01
4.850000000000000e-01	-2.977911e-01
4.850648587574748e-01	-2.947863e-01
4.851945762724243e-01	-2.851160e-01
4.854540113023235e-01	-2.504140e-01
4.859728813621219e-01	-1.533335e-01
4.860000000000000e-01	-1.471456e-01
4.860233837506273e-01	-1.414312e-01
4.860701512518819e-01	-1.306859e-01
4.861636862543910e-01	-1.122722e-01
4.863507562594093e-01	-8.592317e-02
4.866805888890819e-01	-6.232601e-02
4.870000000000000e-01	-5.742950e-02
4.870353787603560e-01	-5.949712e-02
4.871061362810679e-01	-6.494859e-02
4.872476513224917e-01	-8.138742e-02
4.874947969565971e-01	-1.262241e-01
4.879890882248079e-01	-2.435048e-01
4.880000000000000e-01	-2.465531e-01
4.880107996877551e-01	-2.497905e-01
4.880323990632655e-01	-2.559686e-01
4.880755978142861e-01	-2.670291e-01
4.881619953163274e-01	-2.842634e-01
4.883347903204100e-01	-3.013881e-01
4.886803803285752e-01	-2.921408e-01
4.890000000000000e-01	-2.506780e-01
4.890506639023464e-01	-2.399472e-01
4.891519917070390e-01	-2.211946e-01
4.893546473164244e-01	-1.953450e-01
4.897599585351952e-01	-1.702265e-01
4.900000000000000e-01	-1.679393e-01
4.900515776471325e-01	-1.691960e-01
4.901547329413977e-01	-1.700943e-01
4.903610435299279e-01	-1.649567e-01
4.907736647069884e-01	-1.391301e-01
4.910000000000000e-01	-1.181606e-01
4.910635305074248e-01	-1.145023e-01
4.911905915222745e-01	-1.155227e-01
4.914447135519737e-01	-1.447274e-01
4.916941967367457e-01	-2.054995e-01
4.920000000000000e-01	-3.107390e-01
4.920498966369544e-01	-3.300658e-01
4.921496899108632e-01	-3.632654e-01
4.923492764586809e-01	-4.061404e-01
4.927484495543161e-01	-4.374666e-01
4.930000000000000e-01	-4.297167e-01
4.930559512239057e-01	-4.204154e-01
4.931678536717170e-01	-3.978308e-01
4.933916585673397e-01	-3.356227e-01
4.938392683585850e-01	-1.757721e-01
4.940000000000000e-01	-1.083523e-01
4.940467070625382e-01	-8.865858e-02
4.941401211876146e-01	-5.394027e-02
4.943020881634501e-01	-6.908085e-03
4.944553227527365e-01	2.144072e-02
4.946801913851748e-01	3.723005e-02
4.949223971045365e-01	3.222561e-02
4.950000000000000e-01	2.560738e-02
4.950267518365655e-01	2.235270e-02
4.950802555096966e-01	1.635107e-02
4.951864582589836e-01	6.392017e-03
4.953454729733403e-01	-4.215606e-03
4.955722330633115e-01	-1.207219e-02
4.958017727894195e-01	-1.275357e-02
4.960000000000000e-01	-8.773072e-03
4.960218606770395e-01	-8.045275e-03
4.960655820311186e-01	-6.853241e-03
4.961144948973100e-01	-6.000443e-03
4.961665797401069e-01	-5.849089e-03
4.962707494257005e-01	-7.466043e-03
4.964006428585556e-01	-1.274640e-02
4.966176193957466e-01	-2.875064e-02
4.969160212564961e-01	-5.943803e-02
4.970000000000000e-01	-6.990180e-02
4.970449840548032e-01	-7.584234e-02
4.971349521644096e-01	-8.689521e-02
4.973148883836224e-01	-1.053994e-01
4.976747608220479e-01	-1.332422e-01
4.980000000000000e-01	-1.516599e-01
4.980719744876851e-01	-1.547531e-01
4.982159234630553e-01	-1.620727e-01
4.985038214137958e-01	-1.811294e-01
4.990000000000000e-01	-2.205906e-01
4.990575795901481e-01	-2.256350e-01
4.991727387704443e-01	-2.347214e-01
4.994030571310366e-01	-2.486353e-01
4.998636938522213e-01	-2.678509e-01
5.000000000000000e-01	-2.715389e-01
5.000921273442369e-01	-2.707616e-01
5.002763820327109e-01	-2.648337e-01
5.006448914096586e-01	-2.392251e-01
5.010000000000000e-01	-2.033164e-01
5.010737018753896e-01	-1.963742e-01
5.012211056261687e-01	-1.885267e-01
5.015159131277269e-01	-1.945776e-01
5.019255055777269e-01	-2.310484e-01
5.020000000000000e-01	-2.414998e-01
5.020480108544101e-01	-2.486556e-01
5.021440325632303e-01	-2.603491e-01
5.023360759808706e-01	-2.724051e-01
5.027201628161513e-01	-2.693520e-01
5.030000000000000e-01	-2.511691e-01
5.030619752223296e-01	-2.441316e-01
5.031859256669891e-01	-2.309339e-01
5.034338265563078e-01	-2.082178e-01
5.039296283349453e-01	-1.697086e-01
5.040000000000000e-01	-1.650049e-01
5.040391129290208e-01	-1.632502e-01
5.041173387870626e-01	-1.609811e-01
5.042737905031460e-01	-1.619231e-01
5.045866939353130e-01	-1.796652e-01
5.050000000000000e-01	-2.205102e-01
5.050625806864334e-01	-2.274509e-01
5.051877420593002e-01	-2.366036e-01
5.054380648050337e-01	-2.359842e-01
5.058793512470846e-01	-2.019495e-01
5.060000000000000e-01	-1.856841e-01
5.060539414612957e-01	-1.773295e-01
5.061618243838870e-01	-1.633911e-01
5.063775902290698e-01	-1.469356e-01
5.067725602394950e-01	-1.401896e-01
5.070000000000000e-01	-1.469748e-01
5.070478921751184e-01	-1.501950e-01
5.071436765253550e-01	-1.561516e-01
5.073352452258282e-01	-1.659840e-01
5.077183826267747e-01	-1.806563e-01
5.080000000000000e-01	-1.884805e-01
5.080766274801893e-01	-1.883474e-01
5.082298824405679e-01	-1.850418e-01
5.085363923613251e-01	-1.671949e-01
5.090000000000000e-01	-1.255176e-01
5.090606059076519e-01	-1.194908e-01
5.091818177229557e-01	-1.109872e-01
5.094242413535633e-01	-1.068279e-01
5.097482286592756e-01	-1.207703e-01
5.100000000000000e-01	-1.434429e-01
5.101464771255863e-01	-1.633368e-01
5.103417799597012e-01	-1.911304e-01
5.107323856279311e-01	-2.493290e-01
5.110000000000000e-01	-2.906406e-01
5.110781211336460e-01	-2.993318e-01
5.112343634009380e-01	-3.089954e-01
5.115468479355220e-01	-3.002772e-01
5.120000000000000e-01	-2.525679e-01
5.120506760487765e-01	-2.444649e-01
5.121520281463295e-01	-2.321280e-01
5.123547323414356e-01	-2.235495e-01
5.127283085986423e-01	-2.427915e-01
5.130000000000000e-01	-2.771988e-01
5.130504891175557e-01	-2.852008e-01
5.131514673526670e-01	-2.968609e-01
5.133534238228897e-01	-3.014636e-01
5.137573367633351e-01	-2.678357e-01
5.140000000000000e-01	-2.270435e-01
5.140524297994337e-01	-2.151402e-01
5.141572893983009e-01	-1.935494e-01
5.143670085960352e-01	-1.598601e-01
5.147864469915041e-01	-1.134444e-01
5.150000000000000e-01	-9.830270e-02
5.150527386382465e-01	-9.654831e-02
5.151582159147395e-01	-9.329459e-02
5.153691704677256e-01	-8.789831e-02
5.157910795736976e-01	-7.955470e-02
5.160000000000000e-01	-7.638671e-02
5.160843818211944e-01	-7.397389e-02
5.162531454635833e-01	-6.615637e-02
5.165906727483609e-01	-4.038477e-02
5.169971804125997e-01	1.121266e-03
5.170000000000000e-01	1.461797e-03
5.170056391748007e-01	2.195908e-03
5.170169175244020e-01	3.621866e-03
5.170394742236047e-01	6.309519e-03
5.170845876220102e-01	1.108170e-02
5.171748144188210e-01	1.836905e-02
5.173552680124426e-01	2.592061e-02
5.176187395766949e-01	2.399320e-02
5.179169248402735e-01	8.767514e-03
5.180000000000000e-01	1.984601e-03
5.180187254358221e-01	1.062427e-04
5.180561763074660e-01	-3.573577e-03
5.181230146429315e-01	-9.845906e-03
5.182566913138624e-01	-2.132124e-02
5.185240446557243e-01	-4.088065e-02
5.190000000000000e-01	-7.057887e-02
5.190534706683724e-01	-7.259557e-02
5.191604120051171e-01	-7.532077e-02
5.193742946786065e-01	-7.536196e-02
5.197648212672691e-01	-6.428372e-02
5.200000000000000e-01	-5.228058e-02
5.200509866049284e-01	-5.022603e-02
5.201529598147852e-01	-4.954616e-02
5.203540257742477e-01	-5.925009e-02
5.205453932582875e-01	-8.341069e-02
5.209281282263671e-01	-1.578864e-01
5.210000000000000e-01	-1.751838e-01
5.210278372904850e-01	-1.821921e-01
5.210835118714547e-01	-1.945839e-01
5.211948610333943e-01	-2.120829e-01
5.214175593572734e-01	-2.214722e-01
5.218629560050316e-01	-1.894933e-01
5.220000000000000e-01	-1.673623e-01
5.220414344887409e-01	-1.590138e-01
5.221243034662225e-01	-1.453490e-01
5.222900414211858e-01	-1.301153e-01
5.225569309115398e-01	-1.338347e-01
5.229556325461974e-01	-1.759169e-01
5.230000000000000e-01	-1.835324e-01
5.230196623280233e-01	-1.874986e-01
5.230589869840698e-01	-1.947690e-01
5.231376362961629e-01	-2.063469e-01
5.232949349203491e-01	-2.187020e-01
5.236095321687213e-01	-2.135644e-01
5.240000000000000e-01	-1.764496e-01
5.240520274554005e-01	-1.679605e-01
5.241560823662015e-01	-1.532566e-01
5.243641921878034e-01	-1.335033e-01
5.247713870972501e-01	-1.160651e-01
5.250000000000000e-01	-1.157618e-01
5.251432587768450e-01	-1.213450e-01
5.253342704793049e-01	-1.296283e-01
5.257162938842249e-01	-1.479606e-01
5.260000000000000e-01	-1.626327e-01
5.260764046809840e-01	-1.687314e-01
5.262292140429521e-01	-1.847697e-01
5.265348327668881e-01	-2.310797e-01
5.270000000000000e-01	-3.202881e-01
5.270592319239857e-01	-3.320517e-01
5.271776957719573e-01	-3.504777e-01
5.274146234679004e-01	-3.657158e-01
5.278884788597865e-01	-3.536522e-01
5.280000000000000e-01	-3.429974e-01
5.280585171504085e-01	-3.357838e-01
5.281755514512256e-01	-3.246551e-01
5.284096200528597e-01	-3.163740e-01
5.288777572561280e-01	-3.276350e-01
5.290000000000000e-01	-3.362580e-01
5.290671519166190e-01	-3.422586e-01
5.292014557498570e-01	-3.517789e-01
5.294700634163330e-01	-3.605407e-01
5.300000000000000e-01	-3.600770e-01
5.300537215332952e-01	-3.562656e-01
5.301611645998856e-01	-3.454272e-01
5.303760507330664e-01	-3.099486e-01
5.308058229994278e-01	-2.091734e-01
5.310000000000000e-01	-1.529661e-01
5.310637313653986e-01	-1.353082e-01
5.311911940961959e-01	-1.074497e-01
5.314134592200963e-01	-8.011489e-02
5.316377093991459e-01	-7.956445e-02
5.319627463051231e-01	-1.105393e-01
5.320000000000000e-01	-1.164238e-01
5.321011646024323e-01	-1.374308e-01
5.322360507390087e-01	-1.674172e-01
5.325058230121614e-01	-2.331362e-01
5.330000000000000e-01	-3.624502e-01
5.330539544546306e-01	-3.746611e-01
5.331618633638916e-01	-3.923630e-01
5.333776811824138e-01	-3.996061e-01
5.337870935740319e-01	-3.545223e-01
5.340000000000000e-01	-3.068430e-01
5.340520906612947e-01	-2.915888e-01
5.341562719838839e-01	-2.646414e-01
5.343646346290626e-01	-2.260188e-01
5.347813599194199e-01	-1.827091e-01
5.350000000000000e-01	-1.741639e-01
5.350494684921538e-01	-1.753353e-01
5.351484054764615e-01	-1.781771e-01
5.353462794450768e-01	-1.860438e-01
5.357420273823076e-01	-2.068818e-01
5.360000000000000e-01	-2.231355e-01
5.360791495874462e-01	-2.254218e-01
5.362374487623385e-01	-2.228956e-01
5.365540471121231e-01	-1.923461e-01
5.370000000000000e-01	-1.183918e-01
5.370457091883786e-01	-1.075362e-01
5.371371275651357e-01	-8.664532e-02
5.373199643186498e-01	-4.840979e-02
5.376856378256781e-01	1.917558e-02
5.380000000000000e-01	7.107135e-02
5.380565066796164e-01	7.955971e-02
5.381695200388491e-01	9.715378e-02
5.383955467573146e-01	1.349671e-01
5.388476001942456e-01	2.159965e-01
5.390000000000000e-01	2.447458e-01
5.390666788596011e-01	2.604432e-01
5.392000365788034e-01	2.972934e-01
5.394667520172080e-01	3.915375e-01
5.398735711456918e-01	5.662099e-01
5.400000000000000e-01	6.278342e-01
5.400538023637984e-01	6.567153e-01
5.401614070913953e-01	7.152024e-01
5.403766165465889e-01	8.353080e-01
5.408070354569762e-01	1.082285e+00
5.410000000000000e-01	1.195411e+00
5.410860837820775e-01	1.244470e+00
5.412582513462324e-01	1.337884e+00
5.416025864745422e-01	1.509005e+00
5.420000000000000e-01	1.691032e+00
5.420688670256620e-01	1.715634e+00
5.422066010769859e-01	1.756481e+00
5.424820691796338e-01	1.804206e+00
5.430000000000000e-01	1.838141e+00
5.430550936205296e-01	1.831504e+00
5.431652808615888e-01	1.812124e+00
5.433856553437071e-01	1.747196e+00
5.438264043079437e-01	1.562127e+00
5.440000000000000e-01	1.472073e+00
5.440881497928474e-01	1.423036e+00
5.442644493785420e-01	1.333089e+00
5.446170485499313e-01	1.179724e+00
5.450000000000000e-01	1.037681e+00
5.450705198342779e-01	1.014044e+00
5.452115595028336e-01	9.619698e-01
5.454936388399451e-01	8.387631e-01
5.460000000000000e-01	5.877948e-01
5.460564158674224e-01	5.570677e-01
5.461692476022669e-01	4.984405e-01
5.463949110719560e-01	3.932165e-01
5.468462380113343e-01	2.075702e-01
5.470000000000000e-01	1.509688e-01
5.470783486634023e-01	1.236532e-01
5.472350459902069e-01	6.645775e-02
5.475484406438161e-01	-5.721274e-02
5.480000000000000e-01	-2.469248e-01
5.480566693950349e-01	-2.702180e-01
5.481700081851046e-01	-3.121203e-01
5.483966857652440e-01	-3.759713e-01
5.488500409255228e-01	-4.627005e-01
5.490000000000000e-01	-4.807363e-01
5.490663112422995e-01	-4.849524e-01
5.491989337268987e-01	-4.935654e-01
5.494641786960968e-01	-5.115180e-01
5.499946686344931e-01	-5.486929e-01
5.500000000000000e-01	-5.490765e-01
5.500319881930418e-01	-5.513434e-01
5.500746391170974e-01	-5.541699e-01
5.501599409652087e-01	-5.591784e-01
5.503305446614313e-01	-5.669047e-01
5.506717520538764e-01	-5.765421e-01
5.510000000000000e-01	-5.812281e-01
5.510682414784891e-01	-5.795134e-01
5.512047244354672e-01	-5.725546e-01
5.514776903494233e-01	-5.441908e-01
5.520000000000000e-01	-4.657510e-01
5.520545931827913e-01	-4.555713e-01
5.521637795483737e-01	-4.377531e-01
5.523821522795386e-01	-4.129760e-01
5.528188977418683e-01	-3.865176e-01
5.530000000000000e-01	-3.831171e-01
5.530822295473792e-01	-3.810909e-01
5.532466886421374e-01	-3.701075e-01
5.535756068316541e-01	-3.240755e-01
5.540000000000000e-01	-2.380563e-01
5.540621227592435e-01	-2.220171e-01
5.541863682777303e-01	-1.918985e-01
5.544348593147038e-01	-1.398976e-01
5.549318413886510e-01	-5.136666e-02
5.550000000000000e-01	-4.086986e-02
5.550282119813793e-01	-3.716064e-02
5.550846359441379e-01	-3.007541e-02
5.551974838696551e-01	-1.741493e-02
5.554231797206893e-01	2.909005e-03
5.558101584667203e-01	2.880611e-02
5.560000000000000e-01	3.806031e-02
5.560386030188729e-01	3.918013e-02
5.561158090566185e-01	4.105057e-02
5.562702211321097e-01	4.315048e-02
5.565790452830920e-01	4.254014e-02
5.570000000000001e-01	3.624862e-02
5.570371471308151e-01	3.445304e-02
5.571114413924452e-01	2.930403e-02
5.572600299157052e-01	1.357955e-02
5.574237092361902e-01	-1.277936e-02
5.577439319575315e-01	-8.400132e-02
5.580000000000001e-01	-1.526358e-01
5.580381172450498e-01	-1.636979e-01
5.581143517351494e-01	-1.837590e-01
5.582668207153487e-01	-2.147824e-01
5.585717586757473e-01	-2.498932e-01
5.590000000000001e-01	-2.676446e-01
5.591771846294902e-01	-2.599515e-01
5.594134308021436e-01	-2.497744e-01
5.598859231474504e-01	-2.295399e-01
5.600000000000001e-01	-2.246774e-01
5.600944984690615e-01	-2.179598e-01
5.602834954071841e-01	-1.991449e-01
5.606614892834296e-01	-1.449763e-01
5.610000000000001e-01	-8.394857e-02
5.610610452946051e-01	-7.183689e-02
5.611831358838153e-01	-5.012590e-02
5.614273170622356e-01	-1.503847e-02
5.616799626989801e-01	1.066462e-02
5.620000000000001e-01	3.265737e-02
5.621068045661815e-01	3.681810e-02
5.622492106544233e-01	4.277981e-02
5.625340228309071e-01	5.582316e-02
5.630000000000001e-01	7.870637e-02
5.630569624352968e-01	8.259628e-02
5.631708873058903e-01	9.222689e-02
5.633987370470773e-01	1.193134e-01
5.638462927675216e-01	1.883527e-01
5.640000000000001e-01	2.163336e-01
5.640463136891338e-01	2.237347e-01
5.641389410674015e-01	2.339585e-01
5.643241958239368e-01	2.363329e-01
5.646182170542263e-01	2.044804e-01
5.648888073387603e-01	1.454427e-01
5.650000000000001e-01	1.126113e-01
5.650395947060687e-01	1.000498e-01
5.651187841182059e-01	7.748688e-02
5.652771629424803e-01	4.181122e-02
5.654859696873911e-01	1.050178e-02
5.656986320284427e-01	-5.603322e-03
5.658411534427589e-01	-7.464455e-03
5.659697791588162e-01	-3.746471e-03
5.660000000000001e-01	-2.195444e-03
5.660140523544122e-01	-1.247303e-03
5.660327888269616e-01	9.146769e-05
5.660702617720604e-01	3.043484e-03
5.661452076622581e-01	9.989266e-03
5.662950994426533e-01	2.763433e-02
5.665948830034438e-01	7.365361e-02
5.670000000000001e-01	1.479486e-01
5.670498285488150e-01	1.573908e-01
5.671494856464449e-01	1.732114e-01
5.673487998417045e-01	1.917443e-01
5.677389542021862e-01	1.980128e-01
5.680000000000001e-01	1.861037e-01
5.680483654160451e-01	1.820600e-01
5.681450962481353e-01	1.761173e-01
5.683385579123156e-01	1.735033e-01
5.687254812406762e-01	1.903497e-01
5.690000000000001e-01	2.149159e-01
5.691716131385030e-01	2.383444e-01
5.694004306565067e-01	2.705784e-01
5.698580656925142e-01	3.368104e-01
5.700000000000001e-01	3.577811e-01
5.700420026032434e-01	3.620132e-01
5.701260078097303e-01	3.658525e-01
5.702940182227041e-01	3.532293e-01
5.706300390486515e-01	2.729364e-01
5.710000000000001e-01	1.346775e-01
5.710500226680113e-01	1.118489e-01
5.711500680040338e-01	7.217924e-02
5.713080557847244e-01	2.513348e-02
5.714690344377128e-01	-4.046064e-03
5.716331756362902e-01	-1.468736e-02
5.718003271823763e-01	-8.344005e-03
5.719589646339053e-01	9.746778e-03
5.720000000000001e-01	1.641625e-02
5.720233674322819e-01	2.086505e-02
5.720701022968454e-01	2.953757e-02
5.721635720259725e-01	4.592923e-02
5.723505114842266e-01	7.533495e-02
5.727243904007348e-01	1.262140e-01
5.730000000000001e-01	1.589922e-01
5.730747757833017e-01	1.650475e-01
5.732243273499050e-01	1.738953e-01
5.735234304831116e-01	1.792583e-01
5.740000000000001e-01	1.707796e-01
5.740577693573389e-01	1.684385e-01
5.741733080720165e-01	1.661965e-01
5.744043855013717e-01	1.720767e-01
5.748665403600822e-01	2.047283e-01
5.750000000000001e-01	2.188849e-01
5.750621072668315e-01	2.252619e-01
5.751863218004943e-01	2.338597e-01
5.754347508678200e-01	2.338989e-01
5.759074202448271e-01	2.025816e-01
5.760000000000001e-01	1.916867e-01
5.760556679436455e-01	1.842738e-01
5.761670038309362e-01	1.721592e-01
5.763896756055177e-01	1.593861e-01
5.768257480116116e-01	1.580156e-01
5.770000000000000e-01	1.649143e-01
5.770511482238740e-01	1.687728e-01
5.771534446716222e-01	1.764764e-01
5.773580375671186e-01	1.918445e-01
5.777672233581111e-01	2.224992e-01
5.780000000000000e-01	2.399006e-01
5.780818371581985e-01	2.487274e-01
5.782455114745956e-01	2.719144e-01
5.785728601073896e-01	3.375921e-01
5.790000000000000e-01	4.449041e-01
5.790654697265588e-01	4.621463e-01
5.791964091796764e-01	4.904692e-01
5.794582880859117e-01	5.213365e-01
5.799820458983822e-01	5.370734e-01
5.800000000000000e-01	5.363997e-01
5.800359082032355e-01	5.328172e-01
5.801077246097065e-01	5.242722e-01
5.802513574226486e-01	5.010203e-01
5.805386230485327e-01	4.352299e-01
5.810000000000000e-01	3.035094e-01
5.810574531251768e-01	2.864447e-01
5.811723593755304e-01	2.592127e-01
5.814021718762377e-01	2.309181e-01
5.817469935953428e-01	2.333583e-01
5.820000000000000e-01	2.610718e-01
5.820453438196430e-01	2.702556e-01
5.821360314589291e-01	2.886672e-01
5.823174067375014e-01	3.257266e-01
5.826801572946461e-01	4.004629e-01
5.830000000000000e-01	4.668009e-01
5.830725501114289e-01	4.810342e-01
5.832176503342867e-01	5.076032e-01
5.835078507800024e-01	5.533849e-01
5.840000000000000e-01	6.201867e-01
5.840580400891431e-01	6.255127e-01
5.841741202674293e-01	6.340239e-01
5.844062806240019e-01	6.419385e-01
5.848706013371470e-01	6.394823e-01
5.850000000000000e-01	6.348074e-01
5.850928641426290e-01	6.328740e-01
5.852785924278870e-01	6.363722e-01
5.856500489984031e-01	6.663514e-01
5.860000000000000e-01	7.129256e-01
5.860742913141032e-01	7.242291e-01
5.862228739423095e-01	7.414982e-01
5.865200391987224e-01	7.557836e-01
5.870000000000000e-01	7.505110e-01
5.870594330512825e-01	7.465394e-01
5.871782991538477e-01	7.404591e-01
5.874160313589779e-01	7.361696e-01
5.878914957692385e-01	7.430246e-01
5.880000000000000e-01	7.473373e-01
5.880950928820521e-01	7.504979e-01
5.882852786461563e-01	7.519079e-01
5.886656501743648e-01	7.397196e-01
5.890000000000000e-01	7.178654e-01
5.890760743056417e-01	7.104757e-01
5.892282229169251e-01	6.959903e-01
5.895325201394919e-01	6.681008e-01
5.900000000000000e-01	6.266879e-01
5.900608594445134e-01	6.208836e-01
5.901825783335400e-01	6.079332e-01
5.904260161115935e-01	5.763639e-01
5.909128916677003e-01	5.023571e-01
5.910000000000000e-01	4.876046e-01
5.910703393312623e-01	4.772984e-01
5.912110179937869e-01	4.619160e-01
5.914923753188361e-01	4.519835e-01
5.920000000000000e-01	4.668191e-01
5.920562714650098e-01	4.715010e-01
5.921688143950296e-01	4.777870e-01
5.923939002550690e-01	4.772565e-01
5.928440719751478e-01	4.491186e-01
5.930000000000000e-01	4.319928e-01
5.930838959314526e-01	4.189428e-01
5.932516877943580e-01	3.916902e-01
5.935872715201688e-01	3.332359e-01
5.940000000000000e-01	2.571838e-01
5.940671167451621e-01	2.462151e-01
5.942013502354864e-01	2.287699e-01
5.944698172161350e-01	2.118570e-01
5.949524733653477e-01	2.110121e-01
5.950000000000000e-01	2.131516e-01
5.951626928302202e-01	2.263835e-01
5.953796166038471e-01	2.455721e-01
5.958134641511009e-01	2.868290e-01
5.960000000000000e-01	3.055470e-01
5.960867695094507e-01	3.105273e-01
5.962603085283523e-01	3.121857e-01
5.966073865661554e-01	2.879920e-01
5.970000000000000e-01	2.340862e-01
5.970566901100277e-01	2.230030e-01
5.971700703300832e-01	2.026503e-01
5.973968307701941e-01	1.696477e-01
5.978503516504160e-01	1.194444e-01
5.980000000000000e-01	1.069771e-01
5.980652757618462e-01	1.019111e-01
5.981958272855386e-01	8.949833e-02
5.984569303329232e-01	5.585314e-02
5.988833975228932e-01	-1.320682e-02
5.990000000000000e-01	-3.504621e-02
5.990161770856863e-01	-3.815980e-02
5.990485312570590e-01	-4.377834e-02
5.991132395998044e-01	-5.226861e-02
5.992426562852953e-01	-5.905653e-02
5.995014896562768e-01	-4.609104e-02
5.997463970499654e-01	-6.044473e-03
6.000000000000001e-01	5.769438e-02
6.000292241529652e-01	6.700668e-02
6.000876724588955e-01	8.497964e-02
6.002045690707560e-01	1.180331e-01
6.004383622944771e-01	1.740544e-01
6.009059487419193e-01	2.670518e-01
6.010000000000000e-01	2.827656e-01
6.010743060273931e-01	2.910533e-01
6.012229180821793e-01	3.028245e-01
6.015201421917519e-01	3.081081e-01
6.020000000000000e-01	2.910838e-01
6.020594448219145e-01	2.844989e-01
6.021783344657435e-01	2.698546e-01
6.024161137534015e-01	2.342960e-01
6.028916723287177e-01	1.508717e-01
6.030000000000000e-01	1.296815e-01
6.030456031048286e-01	1.210095e-01
6.031368093144857e-01	1.057753e-01
6.033192217337998e-01	8.396193e-02
6.036366031175765e-01	6.610361e-02
6.040000000000000e-01	6.442893e-02
6.040409686792975e-01	6.513650e-02
6.041229060378924e-01	6.352852e-02
6.042867807550824e-01	4.963430e-02
6.044778186105423e-01	1.523419e-02
6.048188842992990e-01	-7.888313e-02
6.050000000000000e-01	-1.414264e-01
6.050356784953579e-01	-1.548216e-01
6.051070354860738e-01	-1.790133e-01
6.052497494675056e-01	-2.158916e-01
6.055351774303692e-01	-2.560833e-01
6.059091548690362e-01	-2.684287e-01
6.060000000000000e-01	-2.640751e-01
6.060419550587424e-01	-2.585365e-01
6.061258651762272e-01	-2.447152e-01
6.062936854111969e-01	-2.076178e-01
6.064736395820898e-01	-1.536481e-01
6.067699592678868e-01	-3.999929e-02
6.070000000000000e-01	6.208014e-02
6.070292658495646e-01	7.569396e-02
6.070877975486939e-01	1.003856e-01
6.072048609469524e-01	1.400507e-01
6.073690211171970e-01	1.779465e-01
6.075343484615157e-01	1.960042e-01
6.077174536373275e-01	1.922435e-01
6.079785310856310e-01	1.619065e-01
6.080000000000000e-01	1.580329e-01
6.080100288767134e-01	1.558404e-01
6.080300866301402e-01	1.516187e-01
6.080702021369940e-01	1.438382e-01
6.081504331507016e-01	1.307334e-01
6.083108951781167e-01	1.133099e-01
6.086318192329467e-01	1.021047e-01
6.090000000000000e-01	1.116844e-01
6.090412438306456e-01	1.150953e-01
6.091237314919369e-01	1.209780e-01
6.092887068145193e-01	1.286281e-01
6.096186574596841e-01	1.325895e-01
6.100000000000000e-01	1.263585e-01
6.100659901290330e-01	1.222464e-01
6.101979703870989e-01	1.119565e-01
6.104619309032308e-01	8.289335e-02
6.109645968290046e-01	1.290812e-02
6.110000000000000e-01	7.188390e-03
6.110044351035439e-01	6.402068e-03
6.110133053106316e-01	4.872127e-03
6.110310457248072e-01	1.970843e-03
6.110665265531582e-01	-3.266858e-03
6.111374882098604e-01	-1.160629e-02
6.112794115232646e-01	-2.144417e-02
6.114912944249743e-01	-2.345509e-02
6.116938264619374e-01	-1.204770e-02
6.119202116929381e-01	1.299343e-02
6.120000000000000e-01	2.455813e-02
6.120292546644089e-01	2.939086e-02
6.120877639932268e-01	3.874276e-02
6.122047826508628e-01	5.607412e-02
6.124388199661346e-01	8.596530e-02
6.129068945966781e-01	1.367469e-01
6.130000000000000e-01	1.454501e-01
6.130676507086102e-01	1.498132e-01
6.132029521258309e-01	1.560558e-01
6.134735549602721e-01	1.582907e-01
6.140000000000000e-01	1.451869e-01
6.140541205668882e-01	1.407621e-01
6.141623617006647e-01	1.301449e-01
6.143788439682177e-01	1.013246e-01
6.148118085033236e-01	2.740644e-02
6.150000000000000e-01	-1.032259e-02
6.150285311004872e-01	-1.639461e-02
6.150855933014615e-01	-2.763903e-02
6.151997177034101e-01	-4.652802e-02
6.153770009411758e-01	-6.648003e-02
6.157315674167072e-01	-8.476796e-02
6.160000000000000e-01	-8.577000e-02
6.161110128634898e-01	-8.076206e-02
6.162590300148096e-01	-7.371746e-02
